4,508
314,509
314,510
314,512
314,513
314,514
314,515
314,516
314,517
315,518
314,519
314,520
315,521
315,522
314,523
315,524
314,525
315,526
314,527
314,528
314,529
314,530
314,531
314,532
314,533
314,534
314,535
314,536
314,537
315,538
315,539
315,540
315,541
315,542
315,543
315,543
315,544
315,545
314,546
315,547
314,548
314,549
314,550
314,551
314,552
314,553
314,555
314,556
315,557
315,558
315,559
315,560
315,561
315,562
316,563
315,564
315,565
315,566
316,567
315,568
315,569
315,570
315,571
315,572
315,573
315,574
315,575
315,576
315,577
315,578
315,579
316,580
316,581
316,582
316,583
316,584
316,585
316,586
315,587
315,588
315,589
316,590
315,591
315,592
315,593
315,594
315,594
315,595
315,596
315,598
315,599
316,600
316,601
316,602
316,603
316,604
316,605
316,606
316,607
315,608
315,609
315,610
315,611
315,612
315,613
316,614
316,615
316,616
316,617
316,618
316,619
317,620
317,621
317,622
317,623
317,624
316,625
316,626
316,627
316,628
316,629
316,630
316,631
316,632
316,633
316,634
316,635
316,636
316,637
317,638
317,640
317,641
317,642
317,643
317,644
317,645
317,646
317,647
317,648
317,648
316,649
316,650
316,651
316,652
316,653
316,654
316,655
316,656
316,657
317,658
317,659
317,660
317,661
317,662
317,663
317,664
317,665
317,666
317,667
317,668
316,669
316,670
316,671
316,672
316,673
316,674
316,675
316,676
316,677
316,678
316,679
317,680
317,681
317,683
317,684
317,685
317,686
317,687
317,688
316,689
316,690
316,691
316,692
315,693
316,694
315,695
315,696
315,697
315,698
316,699
316,700
316,700
316,701
316,702
316,703
316,704
316,705
316,706
316,707
315,708
316,709
315,710
315,711
315,712
315,713
315,714
315,715
315,716
315,717
315,718
315,719
315,720
315,721
315,722
315,723
315,724
315,726
315,727
315,728
314,729
315,730
314,731
314,732
315,733
314,734
314,735
314,736
314,737
315,738
314,739
315,740
315,741
315,742
315,743
314,744
315,745
314,746
314,747
314,748
314,749
314,750
314,751
314,752
314,752
313,753
314,754
314,755
314,756
314,757
314,758
314,759
314,760
314,761
314,762
314,763
314,764
314,765
314,766
314,768
314,769
313,770
313,771
313,772
313,773
313,774
313,775
313,776
313,777
313,778
313,779
313,780
314,781
314,782
314,783
314,784
314,785
314,786
313,787
313,788
313,789
313,790
313,791
313,792
313,793
312,794
313,795
313,796
313,797
313,798
313,799
313,800
313,801
313,802
314,803
313,803
314,804
314,805
313,806
313,807
313,808
313,809
313,811
312,812
312,813
313,814
312,815
313,816
313,817
313,818
313,819
313,820
313,821
313,822
313,823
313,824
313,825
313,826
313,827
313,828
313,829
313,830
313,831
313,832
313,833
313,834
313,835
313,836
313,837
313,838
313,839
314,840
313,841
314,842
313,843
313,844
314,845
313,846
313,847
313,848
313,849
313,850
312,851
312,852
312,854
312,855
312,856
312,857
313,857
313,858
313,859
313,860
313,861
313,862
313,863
313,864
313,865
313,866
313,867
313,868
313,869
313,870
313,871
312,872
312,873
313,874
313,875
313,876
313,877
313,878
313,879
313,880
313,881
313,882
314,883
313,884
313,885
313,886
313,887
313,888
313,889
313,890
313,891
313,892
313,893
313,894
313,896
314,897
313,898
314,899
314,900
314,901
314,902
314,903
314,904
314,905
314,906
314,907
314,908
314,909
313,910
313,910
313,911
313,912
313,913
313,914
313,915
313,916
313,917
314,918
313,919
314,920
314,921
314,922
314,923
314,924
314,925
314,926
314,927
314,928
314,929
314,930
314,931
314,932
313,933
313,934
313,935
313,936
314,937
314,939
314,940
314,941
314,942
314,943
314,944
314,945
314,946
314,947
314,948
314,949
314,950
313,951
313,952
313,953
314,954
314,955
314,956
314,957
314,958
314,959
315,960
315,961
315,961
315,962
315,963
315,964
315,965
314,966
314,967
314,968
314,969
314,970
314,971
314,972
314,973
314,974
314,975
314,976
314,977
314,978
314,979
315,980
315,982
315,983
315,984
315,985
315,986
315,987
315,988
315,989
315,990
315,991
314,992
314,993
314,994
315,995
314,996
314,997
314,998
314,999
315,1000
315,1001
315,1002
315,1003
315,1004
315,1005
315,1006
315,1007
315,1008
315,1009
315,1010
314,1011
314,1012
314,1013
314,1013
314,1014
315,1015
314,1016
315,1017
315,1018
315,1019
315,1020
315,1021
315,1022
315,1024
315,1025
315,1026
315,1027
315,1028
315,1029
315,1030
315,1031
315,1032
314,1033
314,1034
314,1035
314,1036
314,1037
314,1038
315,1039
315,1040
315,1041
315,1042
316,1043
316,1044
316,1045
316,1046
316,1047
315,1048
315,1049
315,1050
315,1051
315,1052
315,1053
315,1054
315,1055
315,1056
315,1057
315,1058
315,1059
315,1060
316,1061
316,1062
316,1063
316,1064
315,1064
315,1065
315,1067
315,1068
315,1069
315,1070
315,1071
315,1072
314,1073
314,1074
314,1075
314,1076
315,1077
315,1078
315,1079
316,1080
316,1081
316,1082
316,1083
316,1084
315,1085
315,1086
315,1087
315,1088
315,1089
315,1090
315,1091
314,1092
314,1093
314,1094
314,1095
314,1096
314,1097
314,1098
315,1099
315,1100
315,1101
315,1102
315,1103
315,1104
315,1105
315,1106
315,1107
315,1108
315,1110
315,1111
315,1112
315,1113
315,1114
315,1115
315,1116
315,1116
315,1117
315,1118
315,1119
315,1120
315,1121
315,1122
315,1123
315,1124
315,1125
315,1126
315,1127
315,1128
315,1129
315,1130
315,1131
315,1132
315,1133
314,1134
314,1135
314,1136
315,1137
315,1138
315,1139
315,1140
315,1141
316,1142
316,1143
316,1144
316,1145
315,1146
315,1147
315,1148
315,1149
315,1150
315,1152
315,1153
315,1154
314,1155
315,1156
315,1157
315,1158
315,1159
315,1160
315,1161
316,1162
316,1163
315,1164
315,1165
315,1166
315,1167
315,1168
315,1168
315,1169
315,1170
314,1171
314,1172
314,1173
314,1174
315,1175
315,1176
315,1177
315,1178
315,1179
315,1180
315,1181
315,1182
315,1183
315,1184
315,1185
315,1186
315,1187
315,1188
315,1189
314,1190
314,1191
314,1192
314,1193
314,1195
314,1196
314,1197
315,1198
315,1199
315,1200
315,1201
315,1202
315,1203
315,1204
315,1205
315,1206
315,1207
315,1208
315,1209
315,1210
315,1211
315,1212
315,1213
315,1214
315,1215
315,1216
315,1217
315,1218
315,1219
315,1219
315,1220
315,1221
316,1222
316,1223
316,1224
316,1225
316,1226
316,1227
315,1228
315,1229
315,1230
315,1231
315,1232
315,1233
315,1234
315,1235
315,1236
315,1238
315,1239
315,1240
315,1241
315,1242
316,1243
315,1244
315,1245
315,1246
315,1247
315,1248
315,1249
315,1250
315,1251
315,1252
315,1253
314,1254
315,1255
314,1256
314,1257
315,1258
315,1259
315,1260
315,1261
315,1262
315,1263
315,1264
315,1265
315,1266
315,1267
315,1268
315,1269
315,1270
315,1271
315,1271
315,1272
314,1273
315,1274
315,1275
315,1276
315,1277
315,1278
315,1280
315,1281
315,1282
315,1283
315,1284
315,1285
315,1286
315,1287
315,1288
315,1289
315,1290
315,1291
315,1292
315,1293
314,1294
314,1295
315,1296
315,1297
315,1298
315,1299
315,1300
315,1301
315,1302
315,1303
315,1304
315,1305
315,1306
315,1307
315,1308
315,1309
315,1310
315,1311
315,1312
315,1313
315,1314
315,1315
315,1316
315,1317
315,1318
315,1319
315,1320
315,1321
315,1323
315,1323
315,1324
315,1325
315,1326
315,1327
315,1328
315,1329
315,1330
314,1331
314,1332
314,1333
314,1334
315,1335
314,1336
315,1337
315,1338
315,1339
315,1340
315,1341
315,1342
315,1343
315,1344
315,1345
315,1346
315,1347
315,1348
315,1349
315,1350
315,1351
315,1352
315,1353
315,1354
315,1355
315,1356
315,1357
315,1358
315,1359
315,1360
315,1361
315,1362
315,1363
315,1364
315,1366
315,1367
315,1368
315,1369
315,1370
315,1371
315,1372
315,1373
315,1374
315,1375
314,1375
315,1376
314,1377
314,1378
315,1379
315,1380
315,1381
315,1382
315,1383
315,1384
315,1385
315,1386
315,1387
315,1388
315,1389
315,1390
315,1391
315,1392
315,1393
315,1394
315,1395
315,1396
315,1397
315,1398
315,1399
315,1400
315,1401
315,1402
315,1403
315,1404
315,1405
315,1406
315,1408
315,1409
315,1410
315,1411
315,1412
315,1413
315,1414
315,1415
315,1416
315,1417
315,1418
315,1419
315,1420
315,1421
315,1422
315,1423
316,1424
316,1425
316,1426
316,1426
315,1427
316,1428
315,1429
315,1430
315,1431
315,1432
315,1433
315,1434
315,1435
315,1436
315,1437
315,1438
315,1439
315,1440
316,1441
315,1442
316,1443
316,1444
316,1445
316,1446
316,1447
316,1448
316,1449
316,1451
316,1452
315,1453
315,1454
315,1455
315,1456
315,1457
315,1458
315,1459
315,1460
315,1461
315,1462
315,1463
315,1464
315,1465
315,1466
315,1467
315,1468
315,1469
315,1470
315,1471
315,1472
314,1473
315,1474
314,1475
314,1476
314,1477
314,1478
314,1478
314,1479
314,1480
315,1481
315,1482
314,1483
315,1484
314,1485
315,1486
315,1487
314,1488
315,1489
314,1490
314,1491
314,1492
314,1494
314,1495
314,1496
314,1497
314,1498
314,1499
314,1500
314,1501
315,1502
315,1503
315,1504
314,1505
314,1506
314,1507
314,1508
314,1509
314,1510
314,1511
314,1512
314,1513
314,1514
314,1515
314,1516
314,1517
314,1518
314,1519
314,1520
314,1521
315,1522
315,1523
315,1524
315,1525
315,1526
315,1527
315,1528
315,1529
315,1529
315,1530
315,1531
315,1532
314,1533
314,1534
315,1536
315,1537
315,1538
315,1539
315,1540
315,1541
315,1542
315,1543
315,1544
315,1545
315,1546
315,1547
315,1548
315,1549
315,1550
315,1551
315,1552
314,1553
315,1554
314,1555
314,1556
314,1557
315,1558
314,1559
315,1560
315,1561
315,1562
315,1563
315,1564
315,1565
315,1566
315,1567
315,1568
315,1569
315,1570
314,1571
315,1572
314,1573
314,1574
314,1575
314,1576
315,1577
314,1579
315,1580
315,1581
315,1581
315,1582
315,1583
315,1584
315,1585
315,1586
315,1587
315,1588
315,1589
315,1590
314,1591
314,1592
314,1593
314,1594
314,1595
314,1596
314,1597
314,1598
314,1599
314,1600
315,1601
315,1602
315,1603
315,1604
315,1605
315,1606
315,1607
314,1608
315,1609
314,1610
315,1611
314,1612
314,1613
314,1614
314,1615
314,1616
314,1617
314,1618
314,1619
314,1620
314,1622
314,1623
314,1624
314,1625
314,1626
314,1627
314,1628
314,1629
314,1630
314,1631
314,1632
314,1633
314,1633
314,1634
314,1635
314,1636
314,1637
314,1638
314,1639
314,1640
314,1641
314,1642
314,1643
314,1644
314,1645
314,1646
314,1647
314,1648
314,1649
314,1650
314,1651
314,1652
314,1653
314,1654
313,1655
314,1656
314,1657
314,1658
314,1659
314,1660
314,1661
314,1662
314,1664
314,1665
314,1666
314,1667
314,1668
313,1669
313,1670
313,1671
313,1672
313,1673
313,1674
313,1675
313,1676
313,1677
313,1678
314,1679
313,1680
314,1681
314,1682
314,1683
314,1684
314,1684
314,1685
314,1686
314,1687
314,1688
313,1689
314,1690
313,1691
313,1692
313,1693
313,1694
313,1695
313,1696
313,1697
313,1698
313,1699
313,1700
313,1701
313,1702
313,1703
314,1704
314,1705
314,1707
314,1708
314,1709
313,1710
313,1711
313,1712
313,1713
313,1714
313,1715
313,1716
313,1717
313,1718
313,1719
314,1720
314,1721
314,1722
314,1723
314,1724
314,1725
314,1726
314,1727
314,1728
314,1729
313,1730
313,1731
313,1732
313,1733
313,1734
313,1735
313,1736
313,1736
313,1737
313,1738
313,1739
314,1740
314,1741
314,1742
314,1743
314,1744
314,1745
314,1746
314,1747
314,1748
314,1750
313,1751
313,1752
313,1753
313,1754
313,1755
314,1756
313,1757
313,1758
313,1759
314,1760
314,1761
314,1762
314,1763
314,1764
314,1765
314,1766
314,1767
314,1768
314,1769
314,1770
314,1771
314,1772
314,1773
314,1774
314,1775
314,1776
314,1777
314,1778
314,1779
314,1780
314,1781
314,1782
314,1783
314,1784
314,1785
314,1786
314,1787
314,1787
314,1788
314,1789
313,1790
313,1792
313,1793
313,1794
313,1795
313,1796
314,1797
313,1798
314,1799
314,1800
314,1801
314,1802
314,1803
314,1804
314,1805
314,1806
314,1807
314,1808
314,1809
314,1810
313,1811
313,1812
313,1813
313,1814
313,1815
313,1816
313,1817
313,1818
313,1819
313,1820
313,1821
313,1822
313,1823
314,1824
314,1825
313,1826
314,1827
313,1828
314,1829
313,1830
313,1831
313,1832
313,1833
313,1835
313,1836
313,1837
313,1838
313,1839
313,1839
313,1840
314,1841
314,1842
314,1843
314,1844
314,1845
314,1846
314,1847
314,1848
314,1849
314,1850
314,1851
313,1852
313,1853
313,1854
313,1855
313,1856
314,1857
314,1858
314,1859
314,1860
313,1861
314,1862
314,1863
314,1864
314,1865
314,1866
314,1867
314,1868
314,1869
314,1870
314,1871
314,1872
314,1873
314,1874
314,1875
314,1876
314,1878
314,1879
314,1880
314,1881
314,1882
314,1883
314,1884
314,1885
314,1886
315,1887
314,1888
315,1889
314,1890
314,1891
314,1891
314,1892
314,1893
314,1894
314,1895
314,1896
314,1897
314,1898
315,1899
315,1900
315,1901
315,1902
315,1903
315,1904
315,1905
315,1906
315,1907
315,1908
315,1909
314,1910
314,1911
314,1912
314,1913
314,1914
314,1915
314,1916
314,1917
314,1918
314,1920
315,1921
315,1922
315,1923
315,1924
315,1925
315,1926
315,1927
315,1928
315,1929
315,1930
314,1931
314,1932
315,1933
314,1934
314,1935
314,1936
314,1937
314,1938
315,1939
315,1940
315,1941
315,1942
315,1942
315,1943
315,1944
315,1945
315,1946
315,1947
315,1948
315,1949
315,1950
315,1951
314,1952
314,1953
314,1954
314,1955
314,1956
314,1957
315,1958
315,1959
315,1960
315,1961
315,1963
315,1964
315,1965
315,1966
315,1967
315,1968
315,1969
315,1970
314,1971
314,1972
314,1973
314,1974
314,1975
314,1976
314,1977
314,1978
314,1979
314,1980
314,1981
315,1982
315,1983
315,1984
315,1985
315,1986
315,1987
315,1988
315,1989
315,1990
314,1991
314,1992
314,1993
314,1994
314,1994
314,1995
314,1996
314,1997
315,1998
314,1999
314,2000
315,2001
315,2002
315,2003
315,2004
315,2006
315,2007
315,2008
315,2009
315,2010
315,2011
314,2012
314,2013
314,2014
314,2015
314,2016
314,2017
314,2018
314,2019
314,2020
314,2021
314,2022
314,2023
314,2024
314,2025
314,2026
314,2027
314,2028
314,2029
314,2030
314,2031
314,2032
314,2033
314,2034
314,2035
314,2036
314,2037
314,2038
314,2039
314,2040
315,2041
314,2042
315,2043
315,2044
314,2045
314,2045
315,2046
314,2048
314,2049
314,2050
314,2051
314,2052
314,2053
314,2054
314,2055
314,2056
314,2057
314,2058
314,2059
314,2060
314,2061
314,2062
314,2063
315,2064
315,2065
315,2066
315,2067
314,2068
315,2069
314,2070
315,2071
314,2072
314,2073
314,2074
314,2075
314,2076
314,2077
314,2078
314,2079
314,2080
314,2081
315,2082
315,2083
315,2084
315,2085
315,2086
315,2087
315,2088
315,2089
315,2091
315,2092
315,2093
315,2094
315,2095
314,2096
315,2097
314,2097
314,2098
314,2099
314,2100
314,2101
314,2102
314,2103
314,2104
314,2105
314,2106
314,2107
314,2108
314,2109
314,2110
314,2111
314,2112
314,2113
314,2114
314,2115
314,2116
315,2117
315,2118
315,2119
315,2120
315,2121
315,2122
315,2123
315,2124
315,2125
316,2126
315,2127
315,2128
315,2129
315,2130
315,2131
315,2132
315,2134
315,2135
315,2136
315,2137
315,2138
315,2139
315,2140
315,2141
316,2142
316,2143
316,2144
316,2145
316,2146
316,2147
316,2148
316,2149
316,2149
316,2150
316,2151
316,2152
315,2153
315,2154
315,2155
315,2156
315,2157
315,2158
315,2159
315,2160
315,2161
315,2162
316,2163
316,2164
316,2165
316,2166
315,2167
316,2168
316,2169
316,2170
315,2171
315,2172
315,2173
315,2174
315,2176
315,2177
315,2178
315,2179
316,2180
316,2181
316,2182
316,2183
316,2184
316,2185
316,2186
315,2187
315,2188
316,2189
315,2190
315,2191
315,2192
315,2193
315,2194
315,2195
315,2196
315,2197
315,2198
315,2199
315,2200
315,2200
315,2201
315,2202
315,2203
315,2204
315,2205
316,2206
315,2207
316,2208
315,2209
316,2210
315,2211
315,2212
315,2213
315,2214
315,2215
315,2216
315,2217
315,2219
315,2220
315,2221
316,2222
316,2223
316,2224
316,2225
316,2226
316,2227
316,2228
316,2229
316,2230
316,2231
315,2232
315,2233
315,2234
315,2235
315,2236
315,2237
315,2238
315,2239
315,2240
315,2241
315,2242
316,2243
316,2244
316,2245
316,2246
316,2247
316,2248
316,2249
316,2250
315,2251
315,2251
315,2252
315,2253
315,2254
315,2255
315,2256
315,2257
315,2258
315,2259
315,2260
315,2262
315,2263
315,2264
315,2265
315,2266
316,2267
316,2268
316,2269
316,2270
316,2271
316,2272
315,2273
315,2274
315,2275
315,2276
315,2277
315,2278
315,2279
315,2280
315,2281
315,2282
315,2283
315,2284
316,2285
316,2286
316,2287
316,2288
315,2289
315,2290
315,2291
315,2292
315,2293
315,2294
315,2295
315,2296
315,2297
315,2298
315,2299
315,2300
315,2301
316,2302
315,2304
315,2304
316,2305
316,2306
316,2307
316,2308
316,2309
315,2310
315,2311
315,2312
315,2313
315,2314
315,2315
315,2316
315,2317
315,2318
315,2319
315,2320
315,2321
315,2322
315,2323
315,2324
315,2325
315,2326
315,2327
315,2328
315,2329
315,2330
315,2331
315,2332
314,2333
314,2334
314,2335
314,2336
314,2337
314,2338
314,2339
315,2340
314,2341
315,2342
314,2343
315,2344
314,2345
315,2347
315,2348
315,2349
315,2350
315,2351
315,2352
314,2353
315,2354
315,2355
314,2355
314,2356
314,2357
315,2358
314,2359
314,2360
314,2361
314,2362
314,2363
314,2364
315,2365
315,2366
314,2367
314,2368
314,2369
314,2370
314,2371
314,2372
314,2373
314,2374
314,2375
314,2376
314,2377
314,2378
314,2379
314,2380
314,2381
314,2382
314,2383
314,2384
314,2385
314,2386
314,2387
314,2388
315,2390
314,2391
314,2392
314,2393
314,2394
314,2395
314,2396
314,2397
314,2398
314,2399
314,2400
314,2401
315,2402
315,2403
315,2404
315,2405
315,2406
315,2406
315,2407
315,2408
315,2409
315,2410
314,2411
314,2412
314,2413
315,2414
314,2415
315,2416
314,2417
315,2418
315,2419
315,2420
315,2421
315,2422
315,2423
315,2424
315,2425
315,2426
315,2427
314,2428
314,2429
314,2430
314,2432
314,2433
314,2434
314,2435
314,2436
314,2437
314,2438
314,2439
314,2440
314,2441
314,2442
314,2443
314,2444
314,2445
314,2446
314,2447
314,2448
314,2449
314,2450
314,2451
314,2452
314,2453
314,2454
314,2455
314,2456
314,2457
314,2458
314,2458
314,2459
314,2460
314,2461
314,2462
314,2463
314,2464
314,2465
314,2466
314,2467
314,2468
314,2469
313,2470
313,2471
313,2472
313,2473
313,2475
313,2476
313,2477
313,2478
313,2479
313,2480
314,2481
313,2482
314,2483
314,2484
314,2485
314,2486
314,2487
314,2488
313,2489
314,2490
313,2491
313,2492
314,2493
313,2494
313,2495
314,2496
313,2497
314,2498
314,2499
313,2500
314,2501
314,2502
314,2503
314,2504
314,2505
314,2506
314,2507
314,2508
314,2509
314,2509
314,2510
313,2511
313,2512
313,2513
313,2514
313,2515
313,2516
314,2518
313,2519
314,2520
314,2521
314,2522
314,2523
314,2524
314,2525
313,2526
313,2527
313,2528
313,2529
313,2530
313,2531
313,2532
313,2533
313,2534
313,2535
313,2536
313,2537
313,2538
313,2539
313,2540
313,2541
313,2542
313,2543
313,2544
313,2545
313,2546
313,2547
313,2548
313,2549
313,2550
313,2551
314,2552
313,2553
313,2554
313,2555
313,2556
313,2557
313,2558
313,2560
313,2561
313,2561
313,2562
313,2563
313,2564
313,2565
313,2566
313,2567
313,2568
313,2569
313,2570
313,2571
313,2572
313,2573
313,2574
313,2575
313,2576
314,2577
313,2578
314,2579
314,2580
314,2581
314,2582
314,2583
314,2584
314,2585
314,2586
314,2587
314,2588
314,2589
314,2590
314,2591
314,2592
314,2593
314,2594
313,2595
313,2596
313,2597
314,2598
314,2599
314,2600
314,2601
314,2603
314,2604
314,2605
314,2606
314,2607
314,2608
314,2609
313,2610
313,2611
313,2612
313,2613
313,2613
313,2614
313,2615
313,2616
313,2617
313,2618
314,2619
314,2620
314,2621
314,2622
314,2623
314,2624
314,2625
314,2626
314,2627
314,2628
314,2629
314,2630
314,2631
314,2632
313,2633
313,2634
314,2635
314,2636
314,2637
314,2638
313,2639
313,2640
314,2641
314,2642
314,2643
314,2644
314,2646
314,2647
314,2648
314,2649
314,2650
314,2651
314,2652
314,2653
314,2654
314,2655
314,2656
314,2657
314,2658
314,2659
314,2660
314,2661
314,2662
314,2663
314,2664
314,2664
314,2665
314,2666
314,2667
314,2668
314,2669
314,2670
314,2671
314,2672
314,2673
314,2674
314,2675
314,2676
315,2677
315,2678
315,2679
315,2680
315,2681
315,2682
315,2683
315,2684
315,2685
315,2686
315,2688
315,2689
315,2690
314,2691
315,2692
314,2693
314,2694
314,2695
314,2696
314,2697
314,2698
315,2699
315,2700
315,2701
315,2702
315,2703
315,2704
315,2705
315,2706
315,2707
315,2708
315,2709
315,2710
315,2711
315,2712
314,2713
314,2714
314,2715
314,2716
314,2716
314,2717
314,2718
314,2719
314,2720
315,2721
315,2722
315,2723
315,2724
315,2725
314,2726
315,2727
315,2728
314,2729
314,2731
314,2732
314,2733
314,2734
314,2735
314,2736
314,2737
314,2738
314,2739
314,2740
314,2741
314,2742
315,2743
314,2744
315,2745
314,2746
314,2747
314,2748
314,2749
314,2750
314,2751
314,2752
314,2753
314,2754
314,2755
314,2756
314,2757
314,2758
314,2759
314,2760
314,2761
314,2762
315,2763
315,2764
315,2765
315,2766
315,2767
315,2767
315,2768
315,2769
315,2770
315,2771
315,2772
315,2774
315,2775
315,2776
315,2777
315,2778
315,2779
315,2780
315,2781
315,2782
315,2783
315,2784
315,2785
315,2786
315,2787
315,2788
315,2789
315,2790
315,2791
315,2792
315,2793
315,2794
315,2795
315,2796
315,2797
315,2798
315,2799
315,2800
315,2801
315,2802
315,2803
315,2804
315,2805
315,2806
315,2807
315,2808
315,2809
315,2810
315,2811
315,2812
315,2813
315,2814
315,2816
315,2817
315,2818
315,2819
315,2820
315,2820
315,2821
315,2822
315,2823
316,2824
315,2825
316,2826
316,2827
316,2828
316,2829
316,2830
316,2831
316,2832
316,2833
316,2834
316,2835
316,2836
316,2837
316,2838
316,2839
316,2840
316,2841
316,2842
316,2843
316,2844
316,2845
316,2846
316,2847
316,2848
316,2849
316,2850
315,2851
315,2852
315,2853
315,2854
315,2855
315,2856
315,2857
315,2859
315,2860
315,2861
316,2862
316,2863
316,2864
316,2865
316,2866
316,2867
315,2868
316,2869
315,2870
315,2871
316,2871
315,2872
315,2873
315,2874
315,2875
315,2876
315,2877
315,2878
315,2879
315,2880
316,2881
315,2882
315,2883
315,2884
316,2885
315,2886
315,2887
315,2888
315,2889
315,2890
315,2891
315,2892
315,2893
315,2894
315,2895
315,2896
315,2897
315,2898
315,2899
316,2900
315,2902
315,2903
316,2904
316,2905
316,2906
316,2907
316,2908
316,2909
316,2910
316,2911
316,2912
316,2913
316,2914
315,2915
315,2916
315,2917
315,2918
316,2919
316,2920
316,2921
315,2922
316,2923
315,2923
316,2924
315,2925
316,2926
316,2927
316,2928
315,2929
315,2930
315,2931
315,2932
315,2933
316,2934
315,2935
315,2936
315,2937
315,2938
315,2939
315,2940
315,2941
315,2942
315,2944
315,2945
315,2946
315,2947
315,2948
315,2949
315,2950
315,2951
315,2952
315,2953
315,2954
315,2955
315,2956
315,2957
315,2958
315,2959
315,2960
315,2961
316,2962
315,2963
316,2964
316,2965
316,2966
316,2967
316,2968
316,2969
316,2970
316,2971
316,2972
315,2973
315,2974
315,2974
315,2975
315,2976
315,2977
315,2978
316,2979
316,2980
316,2981
316,2982
316,2983
316,2984
316,2985
316,2987
316,2988
316,2989
316,2990
316,2991
316,2992
316,2993
316,2994
316,2995
316,2996
316,2997
316,2998
316,2999
316,3000
316,3001
316,3002
316,3003
316,3004
316,3005
316,3006
316,3007
316,3008
316,3009
315,3010
315,3011
315,3012
315,3013
315,3014
315,3015
315,3016
315,3017
315,3018
315,3019
315,3020
315,3021
315,3022
315,3023
315,3024
315,3025
316,3026
315,3026
315,3027
315,3028
315,3030
315,3031
315,3032
315,3033
315,3034
315,3035
315,3036
315,3037
315,3038
315,3039
315,3040
315,3041
315,3042
315,3043
315,3044
315,3045
314,3046
315,3047
314,3048
314,3049
314,3050
314,3051
315,3052
314,3053
315,3054
314,3055
314,3056
314,3057
315,3058
315,3059
315,3060
315,3061
315,3062
314,3063
315,3064
315,3065
314,3066
314,3067
315,3068
315,3069
314,3070
314,3072
314,3073
314,3074
314,3075
314,3076
314,3077
314,3078
314,3078
314,3079
314,3080
314,3081
314,3082
315,3083
315,3084
315,3085
315,3086
315,3087
314,3088
314,3089
314,3090
314,3091
314,3092
314,3093
314,3094
314,3095
315,3096
314,3097
315,3098
315,3099
315,3100
315,3101
315,3102
315,3103
315,3104
315,3105
315,3106
315,3107
315,3108
315,3109
315,3110
315,3111
315,3112
315,3113
314,3115
315,3116
314,3117
315,3118
315,3119
315,3120
315,3121
315,3122
315,3123
315,3124
315,3125
315,3126
315,3127
315,3128
315,3129
315,3129
315,3130
315,3131
315,3132
315,3133
315,3134
315,3135
314,3136
315,3137
315,3138
315,3139
315,3140
315,3141
315,3142
315,3143
315,3144
315,3145
315,3146
314,3147
315,3148
314,3149
314,3150
314,3151
314,3152
314,3153
314,3154
314,3155
314,3156
314,3158
314,3159
314,3160
314,3161
314,3162
315,3163
315,3164
315,3165
315,3166
314,3167
315,3168
314,3169
315,3170
314,3171
314,3172
313,3173
314,3174
313,3175
313,3176
313,3177
313,3178
313,3179
314,3180
314,3181
314,3181
314,3182
314,3183
314,3184
314,3185
314,3186
314,3187
314,3188
314,3189
314,3190
314,3191
314,3192
314,3193
314,3194
313,3195
313,3196
313,3197
314,3198
313,3200
313,3201
313,3202
313,3203
313,3204
313,3205
313,3206
313,3207
313,3208
313,3209
313,3210
313,3211
313,3212
313,3213
313,3214
313,3215
313,3216
313,3217
313,3218
313,3219
313,3220
313,3221
313,3222
313,3223
313,3224
313,3225
313,3226
313,3227
313,3228
313,3229
312,3230
312,3231
312,3232
312,3232
312,3233
312,3234
312,3235
312,3236
313,3237
312,3238
312,3239
313,3240
313,3241
313,3243
313,3244
313,3245
313,3246
313,3247
313,3248
313,3249
313,3250
313,3251
312,3252
312,3253
312,3254
312,3255
312,3256
312,3257
312,3258
313,3259
312,3260
312,3261
313,3262
312,3263
313,3264
312,3265
312,3266
312,3267
312,3268
312,3269
311,3270
311,3271
311,3272
311,3273
311,3274
311,3275
311,3276
312,3277
312,3278
312,3279
312,3280
311,3281
312,3282
311,3283
312,3283
312,3284
312,3286
312,3287
312,3288
312,3289
312,3290
311,3291
311,3292
311,3293
311,3294
311,3295
311,3296
311,3297
311,3298
311,3299
311,3300
311,3301
311,3302
311,3303
311,3304
311,3305
311,3306
311,3307
311,3308
311,3309
310,3310
311,3311
311,3312
310,3313
311,3314
311,3315
311,3316
311,3317
311,3318
311,3319
311,3320
311,3321
311,3322
311,3323
311,3324
311,3325
311,3326
311,3328
311,3329
311,3330
311,3331
311,3332
311,3333
312,3334
312,3335
312,3336
312,3336
312,3337
312,3338
312,3339
312,3340
312,3341
312,3342
312,3343
312,3344
312,3345
312,3346
312,3347
312,3348
312,3349
311,3350
311,3351
311,3352
311,3353
311,3354
311,3355
311,3356
311,3357
311,3358
311,3359
311,3360
311,3361
311,3362
311,3363
312,3364
312,3365
311,3366
311,3367
312,3368
312,3369
312,3371
312,3372
311,3373
311,3374
311,3375
311,3376
312,3377
311,3378
312,3379
312,3380
312,3381
312,3382
312,3383
312,3384
312,3385
313,3386
312,3387
312,3387
312,3388
312,3389
312,3390
312,3391
312,3392
311,3393
311,3394
311,3395
311,3396
311,3397
311,3398
311,3399
311,3400
311,3401
312,3402
312,3403
312,3404
312,3405
312,3406
312,3407
312,3408
312,3409
311,3410
311,3411
311,3412
311,3414
311,3415
311,3416
311,3417
311,3418
311,3419
311,3420
312,3421
312,3422
312,3423
312,3424
312,3425
312,3426
312,3427
311,3428
311,3429
311,3430
311,3431
311,3432
310,3433
311,3434
311,3435
311,3436
311,3437
311,3438
311,3439
311,3439
312,3440
311,3441
312,3442
312,3443
311,3444
312,3445
312,3446
311,3447
311,3448
311,3449
311,3450
311,3451
311,3452
311,3453
311,3454
311,3456
311,3457
311,3458
311,3459
311,3460
311,3461
311,3462
311,3463
311,3464
311,3465
311,3466
311,3467
311,3468
311,3469
311,3470
311,3471
311,3472
311,3473
311,3474
311,3475
311,3476
311,3477
311,3478
311,3479
311,3480
311,3481
311,3482
311,3483
311,3484
311,3485
311,3486
311,3487
312,3488
311,3489
311,3490
311,3490
311,3491
311,3492
311,3493
311,3494
311,3495
311,3496
311,3497
312,3499
312,3500
312,3501
312,3502
312,3503
312,3504
312,3505
312,3506
312,3507
312,3508
312,3509
312,3510
312,3511
312,3512
312,3513
312,3514
312,3515
312,3516
312,3517
312,3518
312,3519
312,3520
312,3521
312,3522
312,3523
312,3524
312,3525
312,3526
312,3527
312,3528
312,3529
312,3530
313,3531
312,3532
312,3533
312,3534
312,3535
313,3536
313,3537
313,3538
313,3539
314,3540
314,3542
314,3542
314,3543
314,3544
314,3545
314,3546
314,3547
314,3548
314,3549
314,3550
314,3551
313,3552
313,3553
314,3554
314,3555
314,3556
314,3557
314,3558
314,3559
314,3560
314,3561
314,3562
314,3563
314,3564
314,3565
314,3566
314,3567
314,3568
314,3569
314,3570
313,3571
313,3572
313,3573
313,3574
313,3575
313,3576
313,3577
313,3578
314,3579
314,3580
314,3581
314,3582
314,3584
314,3585
314,3586
314,3587
314,3588
314,3589
314,3590
313,3591
313,3592
313,3593
313,3593
313,3594
313,3595
313,3596
313,3597
314,3598
314,3599
314,3600
314,3601
314,3602
315,3603
315,3604
315,3605
315,3606
315,3607
315,3608
315,3609
315,3610
315,3611
315,3612
314,3613
314,3614
314,3615
314,3616
314,3617
314,3618
314,3619
314,3620
314,3621
314,3622
314,3623
314,3624
314,3625
314,3627
314,3628
315,3629
314,3630
314,3631
314,3632
314,3633
314,3634
314,3635
314,3636
314,3637
314,3638
314,3639
315,3640
315,3641
315,3642
315,3643
315,3644
316,3645
316,3645
316,3646
316,3647
315,3648
315,3649
315,3650
315,3651
315,3652
315,3653
315,3654
315,3655
315,3656
315,3657
315,3658
315,3659
315,3660
315,3661
314,3662
314,3663
314,3664
314,3665
314,3666
314,3667
314,3668
314,3670
314,3671
314,3672
314,3673
314,3674
314,3675
314,3676
314,3677
314,3678
313,3679
314,3680
314,3681
314,3682
314,3683
314,3684
314,3685
314,3686
314,3687
314,3688
314,3689
314,3690
314,3691
314,3692
314,3693
314,3694
314,3695
314,3696
314,3696
314,3697
314,3698
315,3699
315,3700
315,3701
315,3702
315,3703
315,3704
315,3705
315,3706
315,3707
316,3708
316,3709
316,3710
316,3712
316,3713
316,3714
316,3715
316,3716
315,3717
315,3718
315,3719
315,3720
315,3721
315,3722
315,3723
315,3724
315,3725
315,3726
314,3727
314,3728
314,3729
314,3730
314,3731
314,3732
314,3733
314,3734
314,3735
314,3736
314,3737
313,3738
314,3739
313,3740
313,3741
313,3742
314,3743
314,3744
314,3745
314,3746
314,3747
314,3747
314,3748
314,3749
314,3750
314,3751
314,3752
314,3753
314,3755
314,3756
314,3757
314,3758
315,3759
315,3760
315,3761
314,3762
315,3763
314,3764
315,3765
315,3766
314,3767
314,3768
315,3769
315,3770
314,3771
315,3772
314,3773
314,3774
314,3775
314,3776
314,3777
314,3778
314,3779
314,3780
314,3781
314,3782
314,3783
315,3784
314,3785
314,3786
315,3787
314,3788
314,3789
314,3790
314,3791
313,3792
313,3793
313,3794
313,3795
313,3796
313,3798
313,3799
314,3800
313,3800
314,3801
314,3802
314,3803
314,3804
314,3805
314,3806
314,3807
314,3808
314,3809
314,3810
314,3811
314,3812
314,3813
314,3814
314,3815
314,3816
314,3817
314,3818
314,3819
314,3820
314,3821
314,3822
314,3823
314,3824
314,3825
314,3826
314,3827
314,3828
314,3829
314,3830
314,3831
314,3832
314,3833
314,3834
314,3835
314,3836
314,3837
314,3838
314,3840
314,3841
314,3842
314,3843
314,3844
314,3845
314,3846
315,3847
315,3848
315,3849
315,3850
315,3851
315,3851
315,3852
315,3853
315,3854
314,3855
314,3856
314,3857
314,3858
314,3859
314,3860
314,3861
315,3862
315,3863
315,3864
315,3865
315,3866
315,3867
315,3868
314,3869
314,3870
314,3871
314,3872
314,3873
313,3874
313,3875
313,3876
313,3877
313,3878
313,3879
313,3880
313,3881
313,3883
313,3884
313,3885
313,3886
313,3887
313,3888
313,3889
313,3890
313,3891
314,3892
314,3893
314,3894
313,3895
314,3896
314,3897
314,3898
314,3899
314,3900
314,3901
314,3902
314,3903
314,3903
314,3904
314,3905
314,3906
314,3907
314,3908
314,3909
315,3910
314,3911
315,3912
315,3913
315,3914
315,3915
315,3916
315,3917
315,3918
315,3919
315,3920
315,3921
315,3922
316,3923
315,3924
315,3926
315,3927
315,3928
315,3929
315,3930
315,3931
315,3932
315,3933
315,3934
314,3935
314,3936
314,3937
314,3938
314,3939
314,3940
314,3941
314,3942
314,3943
314,3944
314,3945
314,3946
314,3947
314,3948
314,3949
313,3950
314,3951
314,3952
314,3953
314,3954
313,3954
313,3955
313,3956
313,3957
313,3958
313,3959
313,3960
313,3961
313,3962
313,3963
313,3964
313,3965
313,3966
313,3968
313,3969
313,3970
313,3971
313,3972
313,3973
313,3974
314,3975
313,3976
314,3977
314,3978
314,3979
314,3980
314,3981
314,3982
314,3983
314,3984
314,3985
314,3986
314,3987
314,3988
314,3989
314,3990
314,3991
314,3992
314,3993
314,3994
314,3995
314,3996
315,3997
314,3998
314,3999
314,4000
314,4001
314,4002
314,4003
314,4004
314,4005
314,4005
314,4006
315,4007
315,4008
315,4009
315,4011
315,4012
315,4013
315,4014
315,4015
315,4016
315,4017
315,4018
314,4019
314,4020
314,4021
314,4022
314,4023
314,4024
313,4025
313,4026
313,4027
313,4028
313,4029
313,4030
313,4031
313,4032
313,4033
313,4034
313,4035
313,4036
313,4037
313,4038
313,4039
313,4040
313,4041
313,4042
313,4043
313,4044
313,4045
314,4046
314,4047
313,4048
314,4049
314,4050
314,4051
314,4052
314,4054
314,4055
314,4056
314,4057
314,4058
315,4058
315,4059
315,4060
315,4061
315,4062
315,4063
314,4064
315,4065
315,4066
315,4067
315,4068
316,4069
316,4070
316,4071
316,4072
316,4073
316,4074
316,4075
316,4076
316,4077
315,4078
316,4079
315,4080
315,4081
315,4082
315,4083
316,4084
316,4085
316,4086
316,4087
316,4088
316,4089
316,4090
315,4091
315,4092
315,4093
315,4094
315,4096
315,4097
315,4098
315,4099
315,4100
314,4101
314,4102
314,4103
314,4104
315,4105
315,4106
314,4107
315,4108
315,4109
315,4109
315,4110
314,4111
315,4112
315,4113
315,4114
315,4115
315,4116
315,4117
315,4118
315,4119
315,4120
315,4121
315,4122
315,4123
315,4124
315,4125
315,4126
315,4127
315,4128
316,4129
315,4130
316,4131
316,4132
315,4133
316,4134
316,4135
316,4136
316,4137
316,4139
316,4140
316,4141
316,4142
316,4143
316,4144
316,4145
316,4146
316,4147
316,4148
317,4149
317,4150
317,4151
317,4152
318,4153
317,4154
317,4155
317,4156
317,4157
317,4158
317,4159
317,4160
317,4161
318,4161
318,4162
318,4163
318,4164
318,4165
318,4166
318,4167
318,4168
318,4169
317,4170
317,4171
317,4172
317,4173
317,4174
317,4175
317,4176
317,4177
316,4178
317,4179
317,4180
317,4182
317,4183
317,4184
317,4185
318,4186
318,4187
318,4188
318,4189
318,4190
318,4191
318,4192
317,4193
317,4194
317,4195
317,4196
317,4197
317,4198
317,4199
317,4200
317,4201
317,4202
317,4203
317,4204
317,4205
317,4206
317,4207
317,4208
317,4209
317,4210
317,4211
317,4212
317,4212
317,4213
318,4214
318,4215
318,4216
318,4217
318,4218
318,4219
318,4220
318,4221
318,4222
318,4224
319,4225
318,4226
318,4227
319,4228
319,4229
319,4230
319,4231
319,4232
319,4233
319,4234
319,4235
319,4236
319,4237
319,4238
319,4239
318,4240
318,4241
318,4242
318,4243
318,4244
318,4245
318,4246
318,4247
317,4248
317,4249
317,4250
318,4251
317,4252
317,4253
317,4254
317,4255
317,4256
316,4257
316,4258
316,4259
316,4260
316,4261
316,4262
316,4263
316,4263
316,4264
316,4265
316,4267
316,4268
316,4269
316,4270
316,4271
316,4272
316,4273
316,4274
315,4275
315,4276
315,4277
315,4278
316,4279
316,4280
316,4281
316,4282
316,4283
316,4284
316,4285
316,4286
316,4287
316,4288
316,4289
316,4290
316,4291
316,4292
316,4293
315,4294
315,4295
315,4296
315,4297
315,4298
315,4299
314,4300
314,4301
314,4302
314,4303
314,4304
314,4305
314,4306
315,4307
315,4308
315,4310
315,4311
315,4312
315,4313
315,4314
315,4315
315,4315
315,4316
315,4317
315,4318
315,4319
314,4320
315,4321
314,4322
314,4323
314,4324
314,4325
314,4326
314,4327
314,4328
313,4329
313,4330
313,4331
313,4332
313,4333
313,4334
313,4335
313,4336
313,4337
313,4338
314,4339
314,4340
314,4341
314,4342
314,4343
314,4344
314,4345
314,4346
314,4347
313,4348
313,4349
313,4350
313,4352
313,4353
312,4354
312,4355
312,4356
312,4357
312,4358
312,4359
312,4360
312,4361
312,4362
312,4363
312,4364
312,4365
312,4366
312,4367
312,4367
312,4368
312,4369
312,4370
312,4371
312,4372
312,4373
312,4374
312,4375
311,4376
312,4377
312,4378
312,4379
312,4380
312,4381
313,4382
313,4383
313,4384
313,4385
313,4386
313,4387
313,4388
313,4389
313,4390
313,4391
312,4392
312,4393
312,4395
312,4396
312,4397
312,4398
312,4399
312,4400
312,4401
312,4402
312,4403
312,4404
313,4405
313,4406
313,4407
313,4408
313,4409
313,4410
313,4411
313,4412
313,4413
313,4414
313,4415
313,4416
313,4417
313,4418
313,4418
313,4419
313,4420
313,4421
312,4422
312,4423
313,4424
313,4425
313,4426
313,4427
313,4428
313,4429
313,4430
313,4431
313,4432
314,4433
313,4434
313,4435
313,4436
313,4438
313,4439
313,4440
313,4441
313,4442
313,4443
313,4444
313,4445
313,4446
313,4447
313,4448
313,4449
313,4450
314,4451
314,4452
314,4453
314,4454
314,4455
314,4456
314,4457
314,4458
314,4459
314,4460
314,4461
314,4462
314,4463
314,4464
314,4465
314,4466
314,4467
314,4468
314,4469
313,4469
313,4470
313,4471
313,4472
313,4473
313,4474
313,4475
313,4476
314,4477
314,4478
314,4480
314,4481
314,4482
314,4483
314,4484
315,4485
315,4486
315,4487
315,4488
315,4489
315,4490
315,4491
315,4492
314,4493
314,4494
314,4495
314,4496
314,4497
314,4498
314,4499
314,4500
314,4501
314,4502
314,4503
314,4504
314,4505
315,4506
314,4507
314,4508
315,4509
314,4510
314,4511
314,4512
314,4513
314,4514
314,4515
314,4516
313,4517
314,4518
314,4519
314,4520
314,4521
314,4521
314,4523
314,4524
314,4525
314,4526
314,4527
314,4528
314,4529
314,4530
314,4531
314,4532
314,4533
314,4534
314,4535
314,4536
314,4537
314,4538
314,4539
314,4540
314,4541
314,4542
314,4543
314,4544
314,4545
314,4546
314,4547
314,4548
314,4549
314,4550
314,4551
314,4552
315,4553
315,4554
315,4555
315,4556
315,4557
315,4558
315,4559
315,4560
315,4561
315,4562
315,4563
315,4564
315,4566
315,4567
315,4568
315,4569
315,4570
315,4571
315,4572
315,4573
314,4573
314,4574
314,4575
314,4576
314,4577
314,4578
314,4579
314,4580
314,4581
314,4582
314,4583
314,4584
314,4585
314,4586
314,4587
314,4588
314,4589
314,4590
314,4591
314,4592
313,4593
313,4594
313,4595
314,4596
313,4597
313,4598
313,4599
314,4600
313,4601
314,4602
314,4603
314,4604
314,4605
314,4606
314,4608
314,4609
314,4610
314,4611
314,4612
314,4613
314,4614
314,4615
314,4616
314,4617
314,4618
314,4619
314,4620
314,4621
314,4622
314,4623
314,4624
314,4624
314,4625
314,4626
314,4627
314,4628
314,4629
314,4630
314,4631
314,4632
314,4633
315,4634
314,4635
314,4636
314,4637
314,4638
314,4639
314,4640
314,4641
315,4642
315,4643
315,4644
315,4645
315,4646
316,4647
316,4648
316,4649
316,4651
316,4652
316,4653
315,4654
315,4655
315,4656
315,4657
315,4658
314,4659
314,4660
314,4661
314,4662
314,4663
314,4664
314,4665
314,4666
314,4667
314,4668
315,4669
315,4670
315,4671
315,4672
315,4673
314,4674
314,4675
314,4676
315,4676
314,4677
314,4678
314,4679
315,4680
314,4681
315,4682
315,4683
315,4684
315,4685
315,4686
315,4687
315,4688
315,4689
315,4690
315,4691
315,4692
315,4694
315,4695
315,4696
315,4697
315,4698
315,4699
316,4700
316,4701
316,4702
316,4703
316,4704
316,4705
316,4706
316,4707
316,4708
316,4709
315,4710
315,4711
315,4712
315,4713
315,4714
315,4715
315,4716
315,4717
315,4718
315,4719
315,4720
315,4721
315,4722
315,4723
315,4724
315,4725
315,4726
316,4727
316,4728
316,4728
316,4729
316,4730
316,4731
316,4732
317,4733
317,4734
317,4736
317,4737
317,4738
317,4739
317,4740
317,4741
317,4742
317,4743
317,4744
317,4745
316,4746
316,4747
316,4748
316,4749
316,4750
316,4751
315,4752
315,4753
315,4754
315,4755
315,4756
315,4757
315,4758
315,4759
315,4760
315,4761
315,4762
315,4763
315,4764
314,4765
314,4766
314,4767
314,4768
314,4769
314,4770
314,4771
314,4772
314,4773
314,4774
314,4775
314,4776
314,4777
314,4779
314,4780
314,4780
313,4781
313,4782
313,4783
313,4784
313,4785
313,4786
313,4787
314,4788
314,4789
314,4790
314,4791
314,4792
313,4793
314,4794
313,4795
313,4796
313,4797
313,4798
313,4799
313,4800
313,4801
313,4802
313,4803
313,4804
313,4805
313,4806
313,4807
313,4808
313,4809
313,4810
313,4811
314,4812
314,4813
313,4814
314,4815
314,4816
314,4817
314,4818
314,4819
314,4820
314,4822
314,4823
314,4824
313,4825
313,4826
313,4827
314,4828
313,4829
313,4830
313,4831
313,4832
313,4833
313,4834
313,4834
313,4835
313,4836
312,4837
312,4838
312,4839
312,4840
312,4841
312,4842
312,4843
312,4844
312,4845
312,4846
312,4847
312,4848
312,4849
312,4850
312,4851
312,4852
311,4853
311,4854
311,4855
312,4856
311,4857
311,4858
311,4859
311,4860
311,4861
311,4862
311,4864
311,4865
311,4866
311,4867
311,4868
311,4869
311,4870
311,4871
311,4872
311,4873
311,4874
311,4875
311,4876
311,4877
311,4878
311,4879
311,4880
311,4881
311,4882
311,4883
311,4884
312,4885
312,4885
312,4886
312,4887
312,4888
312,4889
312,4890
311,4891
311,4892
311,4893
311,4894
311,4895
311,4896
311,4897
311,4898
312,4899
312,4900
311,4901
311,4902
311,4903
312,4904
312,4905
312,4907
312,4908
312,4909
312,4910
312,4911
312,4912
312,4913
312,4914
312,4915
312,4916
313,4917
313,4918
313,4919
313,4920
313,4921
313,4922
313,4923
312,4924
313,4925
312,4926
313,4927
313,4928
312,4929
312,4930
312,4931
312,4932
312,4933
312,4934
312,4935
312,4936
312,4936
312,4937
312,4938
312,4939
312,4940
312,4941
312,4942
312,4943
312,4944
312,4945
312,4946
312,4947
312,4948
312,4950
312,4951
312,4952
312,4953
311,4954
311,4955
311,4956
311,4957
311,4958
311,4959
311,4960
311,4961
311,4962
311,4963
311,4964
311,4965
312,4966
312,4967
312,4968
312,4969
312,4970
312,4971
312,4972
312,4973
312,4974
312,4975
312,4976
312,4977
312,4978
312,4979
312,4980
312,4981
313,4982
312,4983
312,4984
312,4985
312,4986
312,4987
312,4987
312,4988
312,4989
312,4990
312,4992
312,4993
312,4994
312,4995
312,4996
312,4997
312,4998
312,4999
312,5000
312,5001
313,5002
313,5003
313,5004
313,5005
313,5006
313,5007
314,5008
314,5009
314,5010
314,5011
314,5012
314,5013
313,5014
313,5015
313,5016
313,5017
313,5018
313,5019
313,5020
313,5021
313,5022
313,5023
313,5024
313,5025
313,5026
313,5027
313,5028
313,5029
313,5030
313,5031
313,5032
312,5033
312,5035
312,5036
312,5037
312,5038
312,5039
312,5040
312,5040
312,5041
313,5042
313,5043
313,5044
313,5045
313,5046
313,5047
313,5048
313,5049
313,5050
313,5051
313,5052
313,5053
313,5054
313,5055
313,5056
313,5057
313,5058
313,5059
313,5060
314,5061
314,5062
314,5063
315,5064
315,5065
315,5066
316,5067
316,5068
316,5069
316,5070
316,5071
316,5072
315,5073
315,5074
315,5075
315,5076
315,5078
314,5079
314,5080
314,5081
314,5082
314,5083
314,5084
314,5085
314,5086
314,5087
314,5088
314,5089
314,5090
314,5091
314,5091
315,5092
314,5093
314,5094
314,5095
314,5096
314,5097
314,5098
314,5099
314,5100
314,5101
314,5102
314,5103
314,5104
314,5105
314,5106
314,5107
314,5108
314,5109
314,5110
314,5111
315,5112
314,5113
314,5114
314,5115
314,5116
314,5117
314,5118
314,5120
315,5121
314,5122
314,5123
315,5124
315,5125
315,5126
315,5127
315,5128
315,5129
315,5130
315,5131
315,5132
316,5133
316,5134
316,5135
315,5136
315,5137
315,5138
315,5139
315,5140
315,5141
315,5142
315,5143
315,5144
315,5144
314,5145
315,5146
315,5147
315,5148
315,5149
315,5150
315,5151
315,5152
315,5153
315,5154
315,5155
315,5156
315,5157
315,5158
315,5159
315,5160
315,5161
315,5163
316,5164
316,5165
316,5166
316,5167
316,5168
316,5169
315,5170
315,5171
315,5172
315,5173
315,5174
315,5175
315,5176
315,5177
315,5178
315,5179
315,5180
315,5181
315,5182
315,5183
315,5184
315,5185
315,5186
315,5187
315,5188
315,5189
315,5190
316,5191
315,5192
316,5193
315,5194
316,5195
315,5195
315,5196
315,5197
315,5198
315,5199
315,5200
316,5201
316,5202
315,5203
316,5204
315,5206
315,5207
315,5208
315,5209
315,5210
315,5211
315,5212
315,5213
315,5214
315,5215
315,5216
315,5217
315,5218
315,5219
316,5220
316,5221
316,5222
316,5223
316,5224
316,5225
316,5226
317,5227
316,5228
317,5229
317,5230
316,5231
316,5232
316,5233
316,5234
316,5235
315,5236
315,5237
316,5238
315,5239
315,5240
316,5241
316,5242
315,5243
316,5244
316,5245
316,5246
316,5248
316,5248
316,5249
316,5250
316,5251
316,5252
316,5253
316,5254
315,5255
315,5256
315,5257
315,5258
315,5259
315,5260
315,5261
315,5262
315,5263
315,5264
315,5265
315,5266
315,5267
315,5268
316,5269
316,5270
316,5271
315,5272
315,5273
315,5274
315,5275
315,5276
315,5277
315,5278
315,5279
315,5280
315,5281
315,5282
315,5283
314,5284
315,5285
314,5286
315,5287
315,5288
315,5289
315,5291
315,5292
315,5293
315,5294
315,5295
315,5296
315,5297
315,5298
315,5299
315,5299
315,5300
315,5301
315,5302
315,5303
315,5304
315,5305
315,5306
316,5307
315,5308
315,5309
316,5310
316,5311
316,5312
316,5313
315,5314
315,5315
315,5316
315,5317
315,5318
315,5319
315,5320
315,5321
315,5322
315,5323
315,5324
315,5325
315,5326
315,5327
315,5328
315,5329
315,5330
315,5331
315,5332
315,5334
315,5335
315,5336
315,5337
315,5338
315,5339
315,5340
315,5341
316,5342
316,5343
316,5344
316,5345
316,5346
316,5347
316,5348
315,5349
315,5350
315,5350
315,5351
315,5352
315,5353
315,5354
314,5355
314,5356
314,5357
314,5358
314,5359
314,5360
314,5361
314,5362
315,5363
315,5364
315,5365
315,5366
315,5367
315,5368
315,5369
315,5370
316,5371
316,5372
316,5373
315,5374
315,5376
315,5377
315,5378
315,5379
315,5380
315,5381
315,5382
314,5383
315,5384
315,5385
314,5386
315,5387
315,5388
315,5389
315,5390
315,5391
315,5392
315,5393
315,5394
315,5395
315,5396
315,5397
315,5398
315,5399
315,5400
315,5401
315,5402
315,5402
315,5403
315,5404
315,5405
315,5406
315,5407
315,5408
315,5409
315,5410
315,5411
315,5412
315,5413
315,5414
315,5415
315,5416
315,5417
315,5419
315,5420
315,5421
315,5422
315,5423
315,5424
315,5425
315,5426
315,5427
315,5428
315,5429
315,5430
315,5431
315,5432
315,5433
315,5434
315,5435
315,5436
315,5437
315,5438
315,5439
315,5440
315,5441
315,5442
315,5443
315,5444
315,5445
315,5446
315,5447
315,5448
315,5449
315,5450
315,5451
315,5452
315,5453
315,5453
315,5454
315,5455
315,5456
315,5457
315,5458
315,5459
315,5460
315,5462
315,5463
315,5464
315,5465
315,5466
315,5467
315,5468
315,5469
315,5470
316,5471
315,5472
315,5473
315,5474
315,5475
315,5476
315,5477
314,5478
315,5479
314,5480
314,5481
315,5482
314,5483
315,5484
315,5485
315,5486
315,5487
315,5488
315,5489
315,5490
315,5491
314,5492
314,5493
314,5494
315,5495
314,5496
315,5497
315,5498
315,5499
315,5500
315,5501
315,5502
315,5504
315,5505
315,5505
315,5506
315,5507
315,5508
315,5509
315,5510
315,5511
315,5512
315,5513
315,5514
314,5515
315,5516
315,5517
315,5518
315,5519
315,5520
315,5521
315,5522
315,5523
315,5524
315,5525
315,5526
315,5527
315,5528
315,5529
315,5530
315,5531
315,5532
315,5533
315,5534
315,5535
314,5536
314,5537
315,5538
314,5539
315,5540
315,5541
315,5542
315,5543
315,5544
315,5545
315,5547
315,5548
315,5549
315,5550
316,5551
316,5552
316,5553
316,5554
316,5555
315,5556
315,5556
315,5557
315,5558
315,5559
314,5560
314,5561
314,5562
314,5563
314,5564
314,5565
314,5566
314,5567
314,5568
314,5569
314,5570
314,5571
314,5572
314,5573
314,5574
314,5575
314,5576
313,5577
313,5578
313,5579
313,5580
313,5581
313,5582
314,5583
313,5584
314,5585
314,5586
314,5587
314,5588
314,5590
314,5591
314,5592
314,5593
314,5594
314,5595
314,5596
314,5597
314,5598
314,5599
314,5600
314,5601
314,5602
314,5603
314,5604
314,5605
314,5606
315,5607
315,5608
315,5608
315,5609
315,5610
315,5611
315,5612
315,5613
315,5614
315,5615
315,5616
315,5617
315,5618
315,5619
315,5620
315,5621
315,5622
315,5623
315,5624
315,5625
315,5626
315,5627
315,5628
314,5629
315,5630
315,5632
314,5633
314,5634
315,5635
314,5636
314,5637
314,5638
314,5639
314,5640
314,5641
314,5642
314,5643
314,5644
314,5645
314,5646
314,5647
314,5648
314,5649
314,5650
314,5651
314,5652
314,5653
314,5654
314,5655
314,5656
313,5657
314,5658
313,5659
313,5659
314,5660
314,5661
314,5662
314,5663
314,5664
314,5665
314,5666
314,5667
314,5668
314,5669
314,5670
314,5671
314,5672
314,5673
314,5675
314,5676
314,5677
314,5678
314,5679
314,5680
314,5681
314,5682
314,5683
314,5684
314,5685
314,5686
314,5687
315,5688
315,5689
315,5690
315,5691
315,5692
315,5693
315,5694
315,5695
314,5696
314,5697
314,5698
314,5699
314,5700
315,5701
314,5702
315,5703
315,5704
315,5705
315,5706
315,5707
315,5708
315,5709
315,5710
315,5710
315,5711
315,5712
315,5713
315,5714
315,5715
315,5716
315,5718
315,5719
316,5720
315,5721
315,5722
315,5723
316,5724
316,5725
316,5726
316,5727
315,5728
315,5729
315,5730
315,5731
314,5732
314,5733
314,5734
314,5735
314,5736
314,5737
314,5738
314,5739
313,5740
313,5741
313,5742
313,5743
313,5744
313,5745
313,5746
313,5747
314,5748
314,5749
314,5750
314,5751
314,5752
314,5753
314,5754
314,5755
314,5756
314,5757
314,5758
314,5760
314,5761
314,5762
314,5763
314,5763
314,5764
314,5765
314,5766
314,5767
315,5768
315,5769
315,5770
314,5771
314,5772
314,5773
314,5774
314,5775
314,5776
314,5777
314,5778
314,5779
314,5780
314,5781
314,5782
314,5783
314,5784
315,5785
315,5786
315,5787
315,5788
315,5789
315,5790
315,5791
315,5792
315,5793
315,5794
315,5795
315,5796
315,5797
315,5798
315,5799
315,5800
315,5801
315,5803
315,5804
315,5805
315,5806
315,5807
315,5808
315,5809
315,5810
315,5811
315,5812
315,5813
315,5814
315,5814
315,5815
315,5816
315,5817
315,5818
315,5819
315,5820
314,5821
314,5822
314,5823
314,5824
314,5825
314,5826
314,5827
314,5828
314,5829
314,5830
314,5831
314,5832
314,5833
314,5834
314,5835
314,5836
314,5837
314,5838
314,5839
314,5840
314,5841
314,5842
314,5843
314,5844
314,5846
314,5847
314,5848
315,5849
315,5850
315,5851
315,5852
315,5853
315,5854
315,5855
315,5856
315,5857
315,5858
315,5859
314,5860
314,5861
314,5862
314,5863
314,5864
314,5865
314,5866
314,5866
314,5867
314,5868
315,5869
315,5870
315,5871
315,5872
314,5873
315,5874
314,5875
314,5876
314,5877
314,5878
314,5879
314,5880
314,5881
313,5882
314,5883
313,5884
313,5885
313,5886
313,5888
314,5889
314,5890
313,5891
314,5892
313,5893
313,5894
313,5895
313,5896
313,5897
313,5898
313,5899
313,5900
313,5901
313,5902
313,5903
313,5904
313,5905
313,5906
313,5907
313,5908
314,5909
314,5910
314,5911
314,5912
314,5913
314,5914
314,5915
314,5916
314,5917
314,5917
314,5918
313,5919
313,5920
313,5921
313,5922
313,5923
313,5924
313,5925
313,5926
313,5927
313,5928
314,5929
314,5931
314,5932
314,5933
314,5934
314,5935
314,5936
314,5937
314,5938
314,5939
314,5940
314,5941
314,5942
314,5943
314,5944
314,5945
315,5946
315,5947
315,5948
315,5949
315,5950
315,5951
315,5952
314,5953
314,5954
314,5955
314,5956
314,5957
313,5958
314,5959
313,5960
313,5961
313,5962
313,5963
313,5964
313,5965
313,5966
313,5967
313,5968
313,5968
313,5969
313,5970
313,5971
313,5972
313,5974
313,5975
313,5976
313,5977
313,5978
313,5979
313,5980
313,5981
313,5982
313,5983
313,5984
313,5985
313,5986
313,5987
313,5988
312,5989
312,5990
312,5991
312,5992
312,5993
312,5994
312,5995
312,5996
312,5997
312,5998
312,5999
312,6000
312,6001
312,6002
313,6003
313,6004
313,6005
313,6006
313,6007
313,6008
313,6009
313,6010
313,6011
313,6012
313,6013
313,6014
313,6016
313,6017
313,6018
313,6019
313,6020
313,6021
313,6021
313,6022
313,6023
313,6024
314,6025
314,6026
314,6027
314,6028
315,6029
315,6030
315,6031
315,6032
315,6033
314,6034
314,6035
313,6036
313,6037
313,6038
313,6039
313,6040
313,6041
312,6042
313,6043
313,6044
313,6045
313,6046
313,6047
313,6048
314,6049
314,6050
314,6051
314,6052
315,6053
315,6054
314,6055
314,6056
314,6057
314,6059
313,6060
313,6061
313,6062
312,6063
312,6064
312,6065
313,6066
313,6067
313,6068
313,6069
313,6070
313,6071
313,6072
314,6072
314,6073
315,6074
315,6075
315,6076
315,6077
315,6078
315,6079
315,6080
315,6081
315,6082
314,6083
314,6084
314,6085
314,6086
314,6087
314,6088
315,6089
315,6090
314,6091
314,6092
315,6093
315,6094
315,6095
315,6096
315,6097
315,6098
315,6099
315,6100
315,6102
315,6103
316,6104
316,6105
316,6106
316,6107
316,6108
316,6109
316,6110
315,6111
316,6112
315,6113
315,6114
315,6115
316,6116
316,6117
316,6118
316,6119
316,6120
316,6121
316,6122
316,6123
316,6123
316,6124
316,6125
316,6126
316,6127
316,6128
316,6129
316,6130
316,6131
316,6132
316,6133
315,6134
315,6135
315,6136
315,6137
315,6138
315,6139
315,6140
315,6141
315,6142
315,6144
316,6145
316,6146
316,6147
317,6148
318,6149
318,6150
318,6151
318,6152
318,6153
318,6154
318,6155
318,6156
318,6157
318,6158
318,6159
318,6160
318,6161
318,6162
318,6163
318,6164
317,6165
317,6166
317,6167
317,6168
317,6169
317,6170
317,6171
316,6172
316,6173
316,6174
316,6175
316,6175
316,6176
315,6177
316,6178
316,6179
316,6180
316,6181
316,6182
316,6183
317,6184
317,6185
317,6187
317,6188
316,6189
316,6190
316,6191
316,6192
316,6193
316,6194
315,6195
315,6196
315,6197
315,6198
315,6199
315,6200
315,6201
315,6202
315,6203
315,6204
316,6205
316,6206
317,6207
317,6208
318,6209
318,6210
318,6211
318,6212
318,6213
317,6214
317,6215
317,6216
316,6217
316,6218
316,6219
316,6220
316,6221
316,6222
316,6223
316,6224
316,6225
317,6226
317,6226
317,6227
317,6228
318,6230
318,6231
318,6232
318,6233
318,6234
318,6235
318,6236
318,6237
318,6238
318,6239
317,6240
317,6241
317,6242
317,6243
317,6244
317,6245
317,6246
317,6247
317,6248
316,6249
316,6250
316,6251
315,6252
315,6253
315,6254
315,6255
315,6256
315,6257
315,6258
315,6259
315,6260
315,6261
316,6262
316,6263
316,6264
316,6265
316,6266
316,6267
316,6268
316,6269
316,6270
316,6272
316,6273
316,6274
316,6275
315,6276
315,6277
315,6278
315,6278
315,6279
315,6280
316,6281
316,6282
316,6283
316,6284
316,6285
316,6286
317,6287
317,6288
317,6289
317,6290
317,6291
318,6292
318,6293
318,6294
318,6295
318,6296
318,6297
318,6298
318,6299
318,6300
318,6301
318,6302
318,6303
317,6304
317,6305
317,6306
317,6307
317,6308
317,6309
316,6310
316,6311
316,6312
316,6313
316,6315
316,6316
316,6317
316,6318
316,6319
317,6320
317,6321
317,6322
317,6323
317,6324
317,6325
317,6326
317,6327
317,6328
317,6329
317,6330
317,6330
317,6331
317,6332
317,6333
317,6334
317,6335
317,6336
317,6337
317,6338
317,6339
317,6340
317,6341
317,6342
317,6343
317,6344
318,6345
318,6346
318,6347
318,6348
319,6349
319,6350
319,6351
318,6352
318,6353
318,6354
318,6355
317,6356
317,6358
317,6359
317,6360
317,6361
317,6362
317,6363
317,6364
317,6365
317,6366
317,6367
317,6368
317,6369
317,6370
317,6371
317,6372
317,6373
317,6374
317,6375
317,6376
317,6377
317,6378
318,6379
318,6380
318,6381
318,6382
318,6382
317,6383
318,6384
318,6385
318,6386
318,6387
318,6388
318,6389
318,6390
318,6391
318,6392
317,6393
317,6394
317,6395
317,6396
317,6397
316,6398
316,6400
316,6401
316,6402
316,6403
317,6404
317,6405
317,6406
317,6407
318,6408
318,6409
319,6410
319,6411
320,6412
320,6413
319,6414
319,6415
318,6416
318,6417
317,6418
317,6419
316,6420
316,6421
315,6422
315,6423
315,6424
315,6425
315,6426
315,6427
315,6428
315,6429
314,6430
315,6431
315,6432
315,6433
316,6434
316,6435
316,6435
316,6436
316,6437
316,6438
316,6439
315,6440
315,6441
315,6443
315,6444
315,6445
315,6446
315,6447
315,6448
315,6449
315,6450
315,6451
316,6452
316,6453
316,6454
316,6455
316,6456
316,6457
315,6458
315,6459
315,6460
314,6461
314,6462
314,6463
314,6464
314,6465
314,6466
314,6467
314,6468
314,6469
314,6470
314,6471
314,6472
314,6473
314,6474
314,6475
314,6476
314,6477
315,6478
315,6479
315,6480
315,6481
315,6482
315,6483
315,6484
315,6486
315,6487
314,6487
314,6488
314,6489
314,6490
313,6491
313,6492
314,6493
314,6494
314,6495
314,6496
314,6497
314,6498
314,6499
314,6500
314,6501
314,6502
315,6503
315,6504
315,6505
315,6506
316,6507
316,6508
316,6509
317,6510
317,6511
316,6512
315,6513
315,6514
315,6515
314,6516
314,6517
314,6518
314,6519
314,6520
314,6521
313,6522
313,6523
313,6524
313,6525
313,6526
313,6528
313,6529
313,6530
313,6531
313,6532
313,6533
313,6534
313,6535
313,6536
313,6537
313,6538
313,6539
313,6539
313,6540
314,6541
314,6542
314,6543
314,6544
313,6545
313,6546
313,6547
313,6548
313,6549
313,6550
313,6551
313,6552
313,6553
312,6554
312,6555
312,6556
312,6557
312,6558
313,6559
313,6560
313,6561
313,6562
313,6563
312,6564
312,6565
312,6566
312,6567
313,6568
313,6569
314,6571
314,6572
314,6573
314,6574
313,6575
313,6576
313,6577
313,6578
312,6579
312,6580
312,6581
312,6582
312,6583
311,6584
311,6585
311,6586
311,6587
311,6588
311,6589
311,6590
311,6590
311,6591
311,6592
311,6593
311,6594
311,6595
312,6596
312,6597
313,6598
313,6599
313,6600
313,6601
313,6602
313,6603
312,6604
312,6605
312,6606
312,6607
312,6608
312,6609
311,6610
311,6611
311,6612
311,6614
311,6615
311,6616
310,6617
310,6618
310,6619
311,6620
311,6621
311,6622
311,6623
311,6624
312,6625
312,6626
313,6627
313,6628
314,6629
314,6630
314,6631
314,6632
314,6633
314,6634
314,6635
314,6636
314,6637
313,6638
313,6639
313,6640
313,6641
313,6642
313,6642
313,6643
313,6644
313,6645
313,6646
313,6647
313,6648
313,6649
313,6650
313,6651
314,6652
314,6653
315,6654
316,6656
315,6657
316,6658
315,6659
315,6660
315,6661
314,6662
313,6663
313,6664
313,6665
313,6666
313,6667
313,6668
313,6669
312,6670
312,6671
312,6672
312,6673
312,6674
311,6675
311,6676
311,6677
311,6678
311,6679
311,6680
311,6681
311,6682
311,6683
311,6684
311,6685
311,6686
311,6687
311,6688
311,6689
312,6690
312,6691
312,6692
313,6693
314,6693
315,6694
315,6695
314,6696
314,6697
313,6699
313,6700
313,6701
314,6702
314,6703
315,6704
316,6705
316,6706
317,6707
318,6708
319,6709
320,6710
320,6711
319,6712
317,6713
316,6714
315,6715
314,6716
314,6717
315,6718
316,6719
317,6720
318,6721
318,6722
319,6723
319,6724
318,6725
316,6726
314,6727
312,6728
310,6729
309,6730
309,6731
310,6732
312,6733
313,6734
314,6735
314,6736
314,6737
314,6738
314,6739
314,6740
314,6742
313,6743
312,6744
312,6745
312,6746
313,6746
314,6747
314,6748
314,6749
313,6750
312,6751
312,6752
313,6753
315,6754
317,6755
318,6756
319,6757
319,6758
320,6759
320,6760
320,6761
319,6762
320,6763
320,6764
321,6765
323,6766
324,6767
324,6768
322,6769
319,6770
318,6771
317,6772
317,6773
318,6774
319,6775
320,6776
321,6777
323,6778
324,6779
324,6780
322,6781
321,6782
320,6784
323,6785
326,6786
330,6787
335,6788
339,6789
340,6790
338,6791
334,6792
328,6793
320,6794
314,6795
310,6796
309,6797
310,6797
313,6798
315,6799
317,6800
318,6801
318,6802
318,6803
317,6804
316,6805
317,6806
318,6807
320,6808
321,6809
322,6810
321,6811
319,6812
317,6813
315,6814
314,6815
313,6816
314,6817
314,6818
315,6819
316,6820
316,6821
316,6822
316,6823
317,6824
318,6825
319,6827
319,6828
320,6829
320,6830
320,6831
321,6832
324,6833
327,6834
332,6835
336,6836
336,6837
335,6838
333,6839
329,6840
327,6841
326,6842
326,6843
330,6844
334,6845
337,6846
339,6847
338,6848
335,6849
328,6849
321,6850
315,6851
310,6852
307,6853
306,6854
306,6855
308,6856
312,6857
316,6858
319,6859
322,6860
322,6861
321,6862
319,6863
317,6864
316,6865
315,6866
316,6867
317,6868
320,6870
322,6871
323,6872
323,6873
322,6874
319,6875
317,6876
317,6877
320,6878
324,6879
327,6880
329,6881
329,6882
327,6883
324,6884
321,6885
319,6886
318,6887
318,6888
317,6889
317,6890
318,6891
320,6892
322,6893
323,6894
325,6895
332,6896
339,6897
345,6898
347,6899
348,6900
346,6900
342,6901
338,6902
335,6903
334,6904
334,6905
334,6906
333,6907
332,6908
331,6909
330,6910
331,6912
332,6913
333,6914
334,6915
333,6916
333,6917
332,6918
330,6919
327,6920
326,6921
327,6922
327,6923
327,6924
328,6925
326,6926
323,6927
320,6928
317,6929
315,6930
314,6931
314,6932
313,6933
312,6934
312,6935
314,6936
319,6937
324,6938
328,6939
331,6940
333,6941
332,6942
330,6943
330,6944
332,6945
335,6946
337,6947
340,6948
342,6949
344,6950
344,6951
344,6952
343,6952
339,6953
335,6955
331,6956
327,6957
324,6958
324,6959
325,6960
327,6961
326,6962
323,6963
321,6964
319,6965
317,6966
314,6967
313,6968
312,6969
312,6970
314,6971
316,6972
318,6973
320,6974
321,6975
322,6976
323,6977
324,6978
324,6979
325,6980
327,6981
328,6982
331,6983
334,6984
337,6985
343,6986
347,6987
350,6988
352,6989
353,6990
352,6991
349,6992
344,6993
339,6994
336,6995
331,6996
326,6998
322,6999
319,7000
317,7001
315,7002
315,7003
316,7004
315,7004
313,7005
312,7006
313,7007
316,7008
316,7009
316,7010
314,7011
312,7012
314,7013
317,7014
319,7015
322,7016
325,7017
327,7018
328,7019
326,7020
323,7021
320,7022
319,7023
319,7024
319,7025
320,7026
322,7027
326,7028
329,7029
331,7030
333,7031
334,7032
334,7033
333,7034
335,7035
335,7036
336,7037
336,7038
336,7040
335,7041
334,7042
333,7043
335,7044
335,7045
333,7046
330,7047
325,7048
319,7049
313,7050
309,7051
308,7052
309,7053
311,7054
312,7055
314,7055
318,7056
319,7057
319,7058
320,7059
320,7060
319,7061
316,7062
314,7063
311,7064
308,7065
308,7066
308,7067
308,7068
308,7069
312,7070
315,7071
317,7072
319,7073
323,7074
329,7075
333,7076
335,7077
335,7078
335,7079
333,7080
328,7081
325,7083
325,7084
327,7085
329,7086
329,7087
329,7088
327,7089
325,7090
326,7091
324,7092
324,7093
325,7094
326,7095
325,7096
321,7097
316,7098
312,7099
310,7100
309,7101
311,7102
312,7103
314,7104
316,7105
317,7106
318,7107
318,7107
320,7108
322,7109
325,7110
330,7111
332,7112
333,7113
333,7114
330,7115
327,7116
324,7117
320,7118
318,7119
315,7120
314,7121
314,7122
313,7123
310,7124
306,7126
303,7127
303,7128
304,7129
308,7130
311,7131
314,7132
314,7133
312,7134
310,7135
309,7136
310,7137
313,7138
316,7139
321,7140
324,7141
324,7142
321,7143
318,7144
316,7145
316,7146
317,7147
317,7148
318,7149
320,7150
322,7151
322,7152
321,7153
319,7154
316,7155
313,7156
310,7157
308,7158
308,7158
310,7159
318,7160
327,7161
335,7162
343,7163
348,7164
348,7165
342,7166
333,7168
325,7169
318,7170
314,7171
311,7172
309,7173
307,7174
307,7175
307,7176
310,7177
312,7178
313,7179
312,7180
309,7181
308,7182
305,7183
304,7184
304,7185
303,7186
303,7187
307,7188
316,7189
321,7190
325,7191
326,7192
326,7193
323,7194
316,7195
309,7196
306,7197
310,7198
315,7199
319,7200
319,7201
316,7202
311,7203
306,7204
303,7205
303,7206
303,7207
306,7208
311,7209
315,7209
321,7211
324,7212
326,7213
326,7214
323,7215
317,7216
310,7217
304,7218
300,7219
298,7220
299,7221
300,7222
302,7223
304,7224
305,7225
307,7226
307,7227
309,7228
312,7229
316,7230
319,7231
321,7232
324,7233
324,7234
322,7235
319,7236
316,7237
313,7238
310,7239
310,7240
312,7241
315,7242
316,7243
317,7244
318,7245
319,7246
317,7247
314,7248
314,7249
316,7250
318,7251
323,7252
326,7254
328,7255
326,7256
322,7257
317,7258
313,7259
311,7260
309,7261
306,7262
303,7262
301,7263
300,7264
301,7265
304,7266
306,7267
308,7268
310,7269
310,7270
311,7271
312,7272
313,7273
313,7274
316,7275
320,7276
322,7277
322,7278
321,7279
320,7280
318,7281
314,7282
313,7283
312,7284
313,7285
314,7286
317,7287
319,7288
320,7289
324,7290
325,7291
325,7292
323,7293
321,7294
320,7296
321,7297
323,7298
324,7299
323,7300
322,7301
318,7302
316,7303
316,7304
315,7305
317,7306
318,7307
315,7308
311,7309
308,7310
305,7311
301,7312
299,7313
300,7313
300,7314
301,7315
302,7316
303,7317
304,7318
306,7319
308,7320
309,7321
312,7322
315,7323
317,7324
316,7325
314,7326
312,7327
307,7328
303,7329
300,7330
300,7331
303,7332
306,7333
308,7334
308,7335
308,7336
308,7337
309,7339
310,7340
313,7341
317,7342
320,7343
322,7344
321,7345
320,7346
322,7347
322,7348
321,7349
319,7350
318,7351
316,7352
315,7353
318,7354
319,7355
320,7356
319,7357
319,7358
320,7359
319,7360
320,7361
322,7362
324,7363
328,7364
329,7365
330,7365
329,7366
330,7367
333,7368
332,7369
331,7370
331,7371
328,7372
321,7373
314,7374
310,7375
307,7376
305,7377
304,7378
304,7379
307,7380
312,7382
314,7383
315,7384
315,7385
314,7386
311,7387
307,7388
302,7389
299,7390
298,7391
295,7392
293,7393
292,7394
291,7395
292,7396
294,7397
296,7398
297,7399
298,7400
300,7401
301,7402
303,7403
305,7404
309,7405
309,7406
308,7407
304,7408
302,7409
301,7410
300,7411
303,7412
308,7413
319,7414
327,7415
332,7416
335,7416
335,7417
331,7418
325,7419
322,7420
322,7421
324,7422
326,7424
328,7425
329,7426
327,7427
322,7428
319,7429
315,7430
311,7431
312,7432
315,7433
317,7434
319,7435
320,7436
320,7437
319,7438
319,7439
322,7440
322,7441
321,7442
321,7443
319,7444
314,7445
310,7446
305,7447
300,7448
299,7449
300,7450
301,7451
303,7452
306,7453
307,7454
304,7455
301,7456
298,7457
295,7458
294,7459
295,7460
296,7461
298,7462
303,7463
308,7464
312,7465
313,7467
316,7468
317,7468
315,7469
312,7470
314,7471
315,7472
322,7473
326,7474
331,7475
334,7476
333,7477
328,7478
321,7479
316,7480
313,7481
310,7482
308,7483
307,7484
305,7485
305,7486
305,7487
305,7488
307,7489
306,7490
305,7491
305,7492
303,7493
303,7494
309,7495
319,7496
326,7497
330,7498
333,7499
333,7500
329,7501
326,7502
319,7503
314,7504
316,7505
318,7506
319,7507
319,7508
318,7510
318,7511
316,7512
314,7513
312,7514
311,7515
308,7516
307,7517
307,7518
308,7519
308,7520
306,7520
306,7521
306,7522
304,7523
304,7524
310,7525
316,7526
320,7527
323,7528
321,7529
317,7530
313,7531
313,7532
314,7533
319,7534
325,7535
329,7536
329,7537
326,7538
326,7539
324,7540
321,7541
317,7542
311,7543
304,7544
298,7545
294,7546
294,7547
296,7548
300,7549
303,7550
306,7552
312,7553
316,7554
317,7555
318,7556
319,7557
320,7558
319,7559
318,7560
317,7561
317,7562
320,7563
321,7564
322,7565
327,7566
332,7567
332,7568
329,7569
329,7570
327,7571
323,7572
319,7572
316,7573
314,7574
313,7575
311,7576
309,7577
306,7578
304,7579
303,7580
302,7581
302,7582
301,7583
300,7584
300,7585
301,7586
306,7587
310,7588
312,7589
311,7590
312,7591
312,7592
310,7593
312,7595
314,7596
317,7597
319,7598
320,7599
317,7600
314,7601
312,7602
310,7603
310,7604
311,7605
311,7606
312,7607
313,7608
313,7609
312,7610
312,7611
312,7612
312,7613
313,7614
313,7615
313,7616
309,7617
304,7618
300,7619
299,7620
303,7621
310,7622
319,7623
326,7623
330,7624
332,7625
332,7626
330,7627
327,7628
321,7629
315,7630
311,7631
309,7632
305,7633
302,7634
301,7635
300,7636
299,7638
299,7639
300,7640
300,7641
301,7642
302,7643
304,7644
305,7645
310,7646
317,7647
322,7648
324,7649
326,7650
324,7651
317,7652
311,7653
310,7654
309,7655
311,7656
311,7657
311,7658
309,7659
306,7660
303,7661
301,7662
301,7663
302,7664
301,7665
299,7666
297,7667
296,7668
296,7669
294,7670
293,7671
293,7672
294,7673
297,7674
301,7675
304,7675
307,7676
313,7677
321,7678
325,7680
329,7681
334,7682
337,7683
337,7684
334,7685
328,7686
322,7687
319,7688
315,7689
313,7690
313,7691
314,7692
313,7693
311,7694
311,7695
312,7696
318,7697
323,7698
327,7699
326,7700
323,7701
316,7702
308,7703
301,7704
296,7705
295,7706
299,7707
304,7708
307,7709
310,7710
312,7711
310,7712
308,7713
306,7714
306,7715
313,7716
318,7717
321,7718
323,7719
323,7720
319,7721
310,7723
300,7724
294,7725
292,7726
295,7727
302,7727
307,7728
309,7729
310,7730
309,7731
307,7732
304,7733
302,7734
300,7735
301,7736
302,7737
302,7738
302,7739
302,7740
301,7741
301,7742
302,7743
302,7744
303,7745
304,7746
306,7747
308,7748
308,7749
308,7750
308,7751
308,7752
312,7753
316,7754
321,7755
325,7756
330,7757
335,7758
336,7759
333,7760
331,7761
330,7762
326,7763
321,7764
319,7766
320,7767
320,7768
320,7769
320,7770
318,7771
314,7772
311,7773
309,7774
306,7775
305,7776
305,7777
305,7778
307,7779
309,7779
314,7780
318,7781
319,7782
317,7783
313,7784
306,7785
300,7786
295,7787
294,7788
296,7789
299,7790
300,7791
301,7792
300,7793
299,7794
298,7795
301,7796
306,7797
310,7798
313,7799
313,7800
307,7801
300,7802
295,7803
291,7804
288,7805
288,7806
286,7808
286,7809
286,7810
287,7811
289,7812
290,7813
292,7814
295,7815
297,7816
298,7817
299,7818
300,7819
303,7820
310,7821
317,7822
321,7823
325,7824
326,7825
326,7826
324,7827
323,7828
326,7829
331,7830
336,7830
338,7831
337,7832
333,7833
329,7834
324,7835
317,7836
312,7837
311,7838
307,7839
302,7840
298,7841
296,7842
296,7843
298,7844
300,7845
303,7846
306,7847
309,7848
310,7849
313,7851
317,7852
320,7853
319,7854
316,7855
312,7856
308,7857
307,7858
306,7859
305,7860
308,7861
308,7862
306,7863
305,7864
303,7865
301,7866
301,7867
301,7868
301,7869
300,7870
299,7871
299,7872
298,7873
299,7874
298,7875
298,7876
298,7877
300,7878
304,7879
306,7880
308,7881
308,7882
307,7882
306,7883
304,7884
303,7885
305,7886
309,7887
312,7888
313,7889
315,7890
319,7891
320,7892
320,7894
321,7895
322,7896
320,7897
318,7898
318,7899
318,7900
318,7901
317,7902
317,7903
317,7904
315,7905
314,7906
313,7907
313,7908
313,7909
314,7910
313,7911
312,7912
310,7913
311,7914
310,7915
312,7916
317,7917
319,7918
324,7919
326,7920
325,7921
323,7922
322,7923
321,7924
317,7925
314,7926
312,7927
307,7928
304,7929
301,7930
297,7931
296,7932
297,7933
300,7933
302,7934
303,7936
306,7937
307,7938
305,7939
304,7940
305,7941
307,7942
309,7943
314,7944
320,7945
325,7946
329,7947
330,7948
329,7949
326,7950
320,7951
314,7952
308,7953
305,7954
302,7955
297,7956
293,7957
290,7958
289,7959
290,7960
293,7961
301,7962
310,7963
319,7964
326,7965
330,7966
329,7967
324,7968
317,7969
313,7970
313,7971
313,7972
314,7973
318,7974
319,7975
320,7976
319,7977
316,7979
312,7980
309,7981
307,7982
307,7983
309,7984
310,7985
314,7985
318,7986
319,7987
318,7988
316,7989
311,7990
306,7991
305,7992
308,7993
310,7994
309,7995
309,7996
311,7997
311,7998
310,7999
307,8000
305,8001
304,8002
304,8003
304,8004
301,8005
301,8006
302,8007
302,8008
300,8009
304,8010
311,8011
316,8012
319,8013
322,8014
321,8015
319,8016
315,8017
309,8018
306,8019
305,8020
304,8022
303,8023
302,8024
302,8025
304,8026
304,8027
302,8028
302,8029
302,8030
303,8031
306,8032
310,8033
317,8034
321,8035
323,8036
329,8037
335,8037
337,8038
339,8039
342,8040
341,8041
336,8042
328,8043
319,8044
311,8045
304,8046
301,8047
301,8048
305,8049
309,8050
313,8051
317,8052
319,8053
320,8054
320,8055
318,8056
317,8057
320,8058
327,8059
331,8060
332,8061
332,8062
330,8064
324,8065
315,8066
308,8067
303,8068
301,8069
303,8070
306,8071
310,8072
314,8073
316,8074
315,8075
314,8076
310,8077
307,8078
303,8079
300,8080
296,8081
293,8082
291,8083
293,8084
300,8085
312,8086
323,8087
331,8088
335,8088
335,8089
331,8090
324,8091
319,8092
317,8093
318,8094
321,8095
320,8096
319,8097
316,8098
312,8099
308,8100
306,8101
304,8102
303,8103
302,8104
301,8105
301,8107
300,8108
298,8109
297,8110
295,8111
295,8112
294,8113
292,8114
291,8115
292,8116
297,8117
303,8118
309,8119
316,8120
322,8121
329,8122
335,8123
339,8124
343,8125
346,8126
345,8127
340,8128
333,8129
327,8130
320,8131
314,8132
311,8133
311,8134
311,8135
313,8136
316,8137
319,8138
323,8139
322,8139
320,8140
322,8141
324,8142
325,8143
324,8144
320,8145
315,8146
311,8147
308,8148
304,8150
300,8151
298,8152
302,8153
305,8154
307,8155
310,8156
313,8157
311,8158
306,8159
303,8160
299,8161
299,8162
299,8163
302,8164
304,8165
306,8166
307,8167
307,8168
307,8169
308,8170
308,8171
312,8172
318,8173
324,8174
327,8175
327,8176
328,8177
328,8178
327,8179
325,8180
322,8181
317,8182
311,8183
306,8184
302,8185
298,8186
296,8187
297,8188
297,8189
298,8190
300,8192
302,8192
308,8193
316,8194
321,8195
324,8196
328,8197
333,8198
334,8199
333,8200
334,8201
334,8202
332,8203
328,8204
323,8205
319,8206
317,8207
312,8208
307,8209
305,8210
305,8211
305,8212
308,8213
312,8214
312,8215
310,8216
305,8217
302,8218
302,8219
305,8220
309,8221
313,8222
318,8223
321,8224
321,8225
317,8226
312,8227
309,8228
306,8229
304,8230
303,8231
301,8232
301,8233
302,8235
304,8236
308,8237
309,8238
310,8239
312,8240
313,8241
312,8242
308,8243
304,8243
301,8244
299,8245
300,8246
301,8247
304,8248
310,8249
322,8250
336,8251
344,8252
347,8253
348,8254
348,8255
344,8256
341,8257
336,8258
331,8259
325,8260
323,8261
321,8262
322,8263
325,8264
324,8265
320,8266
317,8267
310,8268
306,8269
305,8270
306,8271
307,8272
307,8273
305,8274
303,8275
301,8276
301,8278
301,8279
303,8280
303,8281
304,8282
304,8283
305,8284
304,8285
302,8286
300,8287
300,8288
307,8289
314,8290
321,8291
326,8292
327,8293
326,8294
320,8295
313,8295
310,8296
312,8297
311,8298
309,8299
306,8300
303,8301
303,8302
303,8303
304,8304
303,8305
301,8306
303,8307
309,8308
317,8309
325,8310
330,8311
336,8312
339,8313
337,8314
330,8315
323,8316
321,8317
321,8318
322,8320
322,8321
323,8322
326,8323
327,8324
329,8325
330,8326
331,8327
332,8328
331,8329
326,8330
325,8331
320,8332
314,8333
309,8334
303,8335
298,8336
294,8337
292,8338
292,8339
291,8340
293,8341
296,8342
302,8343
310,8344
318,8345
325,8346
330,8346
331,8347
326,8348
320,8349
318,8350
318,8351
318,8352
317,8353
316,8354
313,8355
311,8356
313,8357
315,8358
319,8359
321,8360
322,8361
322,8363
319,8364
315,8365
310,8366
304,8367
301,8368
298,8369
295,8370
293,8371
296,8372
303,8373
311,8374
319,8375
325,8376
327,8377
323,8378
317,8379
311,8380
306,8381
303,8382
300,8383
299,8384
299,8385
300,8386
302,8387
307,8388
311,8389
314,8390
315,8391
313,8392
310,8393
306,8394
304,8395
306,8396
309,8397
313,8398
315,8398
321,8399
327,8400
331,8401
332,8402
334,8403
335,8404
333,8406
331,8407
329,8408
328,8409
325,8410
322,8411
317,8412
316,8413
313,8414
309,8415
306,8416
308,8417
311,8418
311,8419
309,8420
310,8421
311,8422
311,8423
309,8424
306,8425
305,8426
303,8427
303,8428
305,8429
310,8430
314,8431
314,8432
313,8433
312,8434
311,8435
311,8436
310,8437
310,8438
309,8439
306,8440
305,8441
302,8442
300,8443
300,8444
301,8445
300,8446
298,8448
294,8449
292,8450
291,8450
294,8451
297,8452
301,8453
304,8454
311,8455
316,8456
322,8457
328,8458
332,8459
331,8460
325,8461
318,8462
311,8463
307,8464
304,8465
302,8466
300,8467
301,8468
306,8469
312,8470
318,8471
321,8472
321,8473
317,8474
312,8475
307,8476
305,8477
303,8478
302,8479
309,8480
317,8481
325,8482
333,8483
341,8484
345,8485
343,8486
336,8487
325,8488
315,8489
310,8491
307,8492
306,8493
306,8494
306,8495
305,8496
304,8497
303,8498
300,8499
298,8500
295,8501
293,8501
292,8502
294,8503
298,8504
302,8505
310,8506
316,8507
323,8508
324,8509
322,8510
320,8511
319,8512
316,8513
311,8514
307,8515
308,8516
306,8517
304,8518
305,8519
306,8520
309,8521
311,8522
313,8523
312,8524
309,8525
308,8526
307,8527
309,8528
311,8529
314,8530
315,8531
316,8532
314,8534
312,8535
311,8536
310,8537
312,8538
313,8539
311,8540
311,8541
312,8542
312,8543
314,8544
316,8545
320,8546
323,8547
323,8548
323,8549
320,8550
317,8551
317,8552
315,8553
316,8553
319,8554
323,8555
326,8556
329,8557
328,8558
325,8559
320,8560
316,8561
311,8562
307,8563
304,8564
299,8565
296,8566
294,8567
292,8568
294,8569
295,8570
295,8571
293,8572
292,8573
290,8574
289,8576
290,8577
293,8578
296,8579
299,8580
301,8581
306,8582
316,8583
325,8584
332,8585
338,8586
340,8587
337,8588
330,8589
322,8590
316,8591
315,8592
317,8593
316,8594
312,8595
305,8596
297,8597
292,8598
288,8599
289,8600
291,8601
293,8602
295,8603
297,8604
301,8604
303,8605
302,8606
303,8607
302,8608
301,8609
300,8610
299,8611
297,8612
296,8613
302,8614
313,8615
329,8616
341,8617
349,8619
353,8620
350,8621
342,8622
333,8623
327,8624
319,8625
312,8626
310,8627
311,8628
312,8629
312,8630
307,8631
304,8632
302,8633
301,8634
299,8635
297,8636
295,8637
296,8638
303,8639
310,8640
314,8641
316,8642
318,8643
320,8644
323,8645
325,8646
325,8647
324,8648
321,8649
317,8650
311,8651
309,8652
311,8653
314,8654
316,8655
317,8656
316,8656
314,8657
310,8658
306,8659
304,8660
304,8662
304,8663
304,8664
304,8665
302,8666
299,8667
298,8668
302,8669
308,8670
318,8671
327,8672
332,8673
334,8674
333,8675
328,8676
321,8677
314,8678
308,8679
304,8680
302,8681
301,8682
301,8683
302,8684
302,8685
303,8686
303,8687
302,8688
301,8689
303,8690
305,8691
311,8692
318,8693
321,8694
320,8695
318,8696
313,8697
309,8698
306,8699
303,8700
299,8701
298,8702
307,8704
321,8705
333,8706
343,8707
350,8708
350,8708
343,8709
330,8710
313,8711
302,8712
298,8713
295,8714
293,8715
291,8716
291,8717
290,8718
291,8719
294,8720
296,8721
299,8722
301,8723
303,8724
304,8725
305,8726
305,8727
305,8728
304,8729
303,8730
305,8731
307,8732
311,8733
314,8734
318,8735
320,8736
320,8737
321,8738
322,8739
324,8740
327,8741
329,8742
328,8743
325,8744
320,8745
312,8747
305,8748
301,8749
301,8750
303,8751
306,8752
311,8753
316,8754
320,8755
321,8756
321,8757
321,8758
319,8759
315,8760
310,8760
306,8761
305,8762
303,8763
300,8764
296,8765
295,8766
294,8767
294,8768
296,8769
297,8770
299,8771
302,8772
306,8773
307,8774
310,8775
317,8776
327,8777
335,8778
340,8779
343,8780
342,8781
337,8782
329,8783
319,8784
312,8785
309,8786
305,8787
302,8788
300,8790
299,8791
300,8792
303,8793
306,8794
309,8795
313,8796
315,8797
315,8798
311,8799
305,8800
300,8801
298,8802
298,8803
300,8804
305,8805
311,8806
321,8807
329,8808
333,8809
333,8810
330,8811
326,8812
322,8812
319,8813
314,8814
310,8815
308,8816
306,8817
307,8818
309,8819
310,8820
312,8821
314,8822
315,8823
313,8824
310,8825
308,8826
307,8827
306,8828
307,8829
310,8830
309,8832
307,8833
303,8834
299,8835
297,8836
297,8837
296,8838
300,8839
304,8840
311,8841
321,8842
331,8843
336,8844
336,8845
334,8846
330,8847
324,8848
319,8849
313,8850
309,8851
305,8852
306,8853
308,8854
312,8855
316,8856
320,8857
320,8858
318,8859
316,8860
314,8861
314,8862
315,8863
313,8863
310,8864
306,8865
302,8866
301,8867
298,8868
295,8869
294,8870
296,8871
299,8872
306,8873
313,8875
320,8876
325,8877
326,8878
326,8879
322,8880
317,8881
311,8882
307,8883
307,8884
308,8885
310,8886
313,8887
313,8888
312,8889
309,8890
308,8891
309,8892
310,8893
313,8894
314,8895
315,8896
316,8897
319,8898
320,8899
323,8900
324,8901
326,8902
326,8903
322,8904
316,8905
312,8906
309,8907
308,8908
310,8909
316,8910
320,8911
322,8912
322,8913
321,8914
317,8915
313,8915
310,8916
308,8918
306,8919
305,8920
305,8921
304,8922
304,8923
303,8924
301,8925
299,8926
298,8927
302,8928
308,8929
313,8930
318,8931
321,8932
322,8933
322,8934
326,8935
331,8936
332,8937
334,8938
335,8939
338,8940
339,8941
337,8942
333,8943
327,8944
321,8945
317,8946
311,8947
305,8948
300,8949
297,8950
296,8951
295,8952
293,8953
293,8954
293,8955
292,8956
291,8957
291,8958
289,8960
289,8961
292,8962
297,8963
304,8964
311,8965
319,8966
326,8967
329,8967
332,8968
335,8969
337,8970
340,8971
341,8972
339,8973
333,8974
324,8975
314,8976
309,8977
308,8978
304,8979
300,8980
298,8981
297,8982
297,8983
297,8984
298,8985
298,8986
302,8987
309,8988
315,8989
319,8990
322,8991
322,8992
319,8993
312,8994
308,8995
310,8996
315,8997
320,8998
327,8999
334,9000
338,9001
337,9003
334,9004
328,9005
321,9006
318,9007
315,9008
312,9009
310,9010
308,9011
305,9012
302,9013
299,9014
296,9015
297,9016
298,9017
298,9018
299,9018
299,9019
298,9020
297,9021
295,9022
295,9023
297,9024
301,9025
307,9026
313,9027
317,9028
320,9029
322,9030
323,9031
322,9032
323,9033
325,9034
325,9035
324,9036
322,9037
320,9038
320,9039
318,9040
315,9041
314,9042
314,9043
314,9044
314,9046
313,9047
312,9048
311,9049
311,9050
313,9051
315,9052
315,9053
318,9054
324,9055
329,9056
334,9057
336,9058
339,9059
341,9060
341,9061
339,9062
334,9063
328,9064
320,9065
312,9066
305,9067
300,9068
299,9069
299,9070
300,9070
304,9071
308,9072
313,9073
317,9074
322,9075
325,9076
326,9077
325,9078
323,9079
323,9080
320,9081
316,9082
314,9083
312,9084
309,9085
304,9086
300,9088
298,9089
298,9090
300,9091
302,9092
306,9093
309,9094
314,9095
317,9096
318,9097
318,9098
317,9099
317,9100
314,9101
313,9102
314,9103
314,9104
314,9105
318,9106
320,9107
321,9108
322,9109
323,9110
323,9111
323,9112
321,9113
325,9114
329,9115
333,9116
331,9117
329,9118
322,9119
312,9120
305,9121
303,9121
304,9122
305,9123
308,9124
309,9125
313,9126
317,9127
320,9128
322,9129
324,9131
326,9132
322,9133
315,9134
307,9135
302,9136
301,9137
305,9138
310,9139
313,9140
313,9141
314,9142
312,9143
309,9144
304,9145
300,9146
297,9147
298,9148
302,9149
306,9150
310,9151
314,9152
317,9153
323,9154
326,9155
328,9156
328,9157
326,9158
320,9159
313,9160
307,9161
300,9162
298,9163
299,9164
302,9165
305,9166
309,9167
313,9168
314,9169
313,9170
313,9171
311,9172
307,9174
303,9174
303,9175
305,9176
309,9177
314,9178
320,9179
325,9180
328,9181
329,9182
329,9183
329,9184
326,9185
324,9186
323,9187
321,9188
316,9189
310,9190
306,9191
303,9192
300,9193
301,9194
304,9195
309,9196
313,9197
317,9198
321,9199
322,9200
318,9201
313,9202
307,9203
304,9204
300,9205
295,9206
291,9207
291,9208
293,9209
296,9210
300,9211
303,9212
306,9213
308,9214
307,9216
305,9217
306,9218
308,9219
310,9220
310,9221
310,9222
308,9223
306,9224
308,9225
311,9225
314,9226
317,9227
318,9228
315,9229
311,9230
305,9231
300,9232
297,9233
294,9234
293,9235
295,9236
298,9237
305,9238
311,9239
318,9240
324,9241
328,9242
330,9243
331,9244
330,9245
326,9246
323,9247
321,9248
317,9249
311,9250
304,9251
298,9252
295,9253
296,9254
300,9255
304,9256
309,9257
313,9259
316,9260
316,9261
314,9262
311,9263
308,9264
306,9265
307,9266
310,9267
312,9268
313,9269
316,9270
320,9271
323,9272
324,9273
324,9274
321,9275
318,9276
313,9277
307,9277
304,9278
301,9279
302,9280
304,9281
304,9282
303,9283
303,9284
305,9285
306,9286
306,9287
307,9288
308,9289
309,9290
312,9291
314,9292
310,9293
306,9294
303,9295
302,9296
301,9297
302,9298
303,9299
307,9300
311,9302
313,9303
318,9304
323,9305
326,9306
331,9307
333,9308
330,9309
328,9310
323,9311
314,9312
306,9313
304,9314
306,9315
311,9316
318,9317
327,9318
332,9319
335,9320
334,9321
332,9322
331,9323
329,9324
327,9325
322,9326
318,9327
315,9328
312,9328
309,9329
306,9330
302,9331
297,9332
294,9333
292,9334
293,9335
296,9336
301,9337
306,9338
312,9339
315,9340
315,9341
318,9342
323,9344
325,9345
324,9346
325,9347
322,9348
318,9349
313,9350
309,9351
306,9352
304,9353
303,9354
303,9355
300,9356
298,9357
297,9358
296,9359
295,9360
295,9361
297,9362
298,9363
298,9364
298,9365
297,9366
297,9367
300,9368
304,9369
308,9370
311,9371
314,9372
316,9373
317,9374
318,9375
319,9376
321,9377
323,9378
325,9379
325,9380
325,9380
324,9381
324,9382
322,9383
319,9384
316,9385
314,9387
310,9388
306,9389
303,9390
302,9391
301,9392
303,9393
308,9394
311,9395
315,9396
317,9397
318,9398
316,9399
311,9400
306,9401
303,9402
303,9403
305,9404
306,9405
306,9406
307,9407
308,9408
309,9409
308,9410
309,9411
309,9412
311,9413
314,9414
319,9415
322,9416
325,9417
323,9418
321,9419
317,9420
313,9421
308,9422
305,9423
303,9424
300,9425
299,9426
297,9427
297,9428
297,9430
300,9431
304,9432
307,9432
310,9433
313,9434
318,9435
323,9436
324,9437
323,9438
320,9439
319,9440
317,9441
313,9442
312,9443
312,9444
315,9445
317,9446
319,9447
320,9448
320,9449
318,9450
315,9451
311,9452
310,9453
312,9454
313,9455
314,9456
314,9457
319,9458
325,9459
325,9460
323,9461
322,9462
320,9463
318,9464
315,9465
313,9466
313,9467
312,9468
313,9469
311,9470
309,9472
310,9473
311,9474
311,9475
309,9476
307,9477
306,9478
305,9479
305,9480
304,9481
303,9482
302,9483
305,9484
309,9484
313,9485
318,9486
322,9487
323,9488
321,9489
317,9490
312,9491
310,9492
314,9493
319,9494
323,9495
327,9496
330,9497
328,9498
324,9499
320,9500
314,9501
309,9502
309,9503
311,9504
315,9505
318,9506
319,9507
318,9508
314,9509
307,9510
304,9511
301,9512
300,9513
299,9515
300,9516
300,9517
301,9518
304,9519
303,9520
301,9521
299,9522
300,9523
303,9524
307,9525
311,9526
317,9527
322,9528
324,9529
324,9530
322,9531
318,9532
319,9533
321,9534
320,9535
320,9536
319,9536
318,9537
317,9538
320,9539
323,9540
324,9541
324,9542
322,9543
319,9544
312,9545
306,9546
300,9547
298,9548
299,9549
300,9550
303,9551
304,9552
306,9553
307,9554
309,9555
312,9556
315,9558
316,9559
319,9560
320,9561
324,9562
328,9563
329,9564
328,9565
326,9566
323,9567
318,9568
308,9569
301,9570
295,9571
292,9572
294,9573
296,9574
297,9575
298,9576
299,9577
301,9578
301,9579
303,9580
307,9581
311,9582
312,9583
312,9584
310,9585
309,9586
305,9587
303,9588
303,9589
304,9589
304,9590
304,9591
305,9592
305,9593
304,9594
304,9595
304,9596
304,9597
306,9598
306,9600
308,9601
312,9602
320,9603
331,9604
338,9605
341,9606
340,9607
336,9608
329,9609
320,9610
313,9611
311,9612
317,9613
326,9614
332,9615
334,9616
334,9617
334,9618
329,9619
321,9620
316,9621
310,9622
306,9623
304,9624
304,9625
304,9626
303,9627
303,9628
304,9629
308,9630
313,9631
320,9632
329,9633
333,9634
333,9635
330,9636
323,9637
313,9638
303,9639
293,9640
285,9641
284,9643
284,9643
285,9644
287,9645
289,9646
291,9647
292,9648
296,9649
304,9650
314,9651
322,9652
328,9653
331,9654
331,9655
329,9656
326,9657
322,9658
320,9659
317,9660
314,9661
313,9662
314,9663
313,9664
313,9665
315,9666
316,9667
315,9668
310,9669
305,9670
301,9671
300,9672
303,9673
305,9674
307,9675
308,9676
309,9677
307,9678
307,9679
306,9680
304,9681
302,9682
301,9683
300,9684
302,9686
304,9687
305,9688
307,9689
311,9690
319,9691
326,9692
330,9693
333,9694
333,9695
332,9695
328,9696
323,9697
318,9698
314,9699
315,9700
318,9701
321,9702
324,9703
325,9704
323,9705
317,9706
313,9707
309,9708
305,9709
303,9710
299,9711
297,9712
297,9713
297,9714
298,9715
298,9716
298,9717
300,9718
304,9719
309,9720
315,9721
320,9722
324,9723
326,9724
324,9725
321,9726
317,9728
314,9729
312,9730
311,9731
311,9732
310,9733
309,9734
311,9735
311,9736
313,9737
314,9738
317,9739
317,9740
313,9741
307,9742
301,9743
296,9744
294,9745
298,9746
305,9746
313,9747
321,9748
324,9749
327,9750
328,9751
329,9752
330,9753
330,9754
329,9755
326,9756
320,9757
313,9758
308,9759
308,9760
310,9761
313,9762
316,9763
320,9764
322,9765
321,9766
317,9767
310,9768
302,9769
298,9771
295,9772
292,9773
291,9774
293,9775
297,9776
302,9777
310,9778
318,9779
326,9780
333,9781
337,9782
340,9783
339,9784
338,9785
335,9786
330,9787
325,9788
320,9789
315,9790
312,9791
309,9792
306,9793
304,9794
301,9795
298,9796
295,9797
292,9797
289,9798
289,9799
288,9800
288,9801
289,9802
291,9803
294,9804
297,9805
300,9806
303,9807
304,9808
305,9809
308,9810
311,9811
315,9812
321,9814
326,9815
331,9816
333,9817
333,9818
329,9819
323,9820
319,9821
315,9822
310,9823
309,9824
309,9825
311,9826
314,9827
315,9828
315,9829
315,9830
316,9831
318,9832
319,9833
315,9834
314,9835
314,9836
314,9837
313,9838
312,9839
307,9840
303,9841
303,9842
304,9843
306,9844
309,9845
315,9846
321,9847
332,9848
341,9849
346,9849
347,9850
344,9851
340,9852
335,9853
330,9854
323,9856
317,9857
313,9858
309,9859
304,9860
301,9861
299,9862
298,9863
298,9864
298,9865
296,9866
295,9867
295,9868
295,9869
293,9870
292,9871
293,9872
295,9873
301,9874
307,9875
313,9876
317,9877
319,9878
320,9879
323,9880
327,9881
330,9882
330,9883
328,9884
326,9885
323,9886
322,9887
322,9888
321,9889
321,9890
322,9891
323,9892
323,9893
323,9894
320,9895
317,9896
314,9897
313,9899
313,9900
315,9901
317,9901
317,9902
317,9903
317,9904
316,9905
315,9906
315,9907
317,9908
320,9909
324,9910
328,9911
331,9912
332,9913
330,9914
325,9915
323,9916
322,9917
319,9918
317,9919
316,9920
316,9921
315,9922
312,9923
306,9924
304,9925
307,9926
311,9927
317,9928
324,9929
333,9930
336,9931
334,9932
332,9933
328,9934
325,9935
323,9936
323,9937
324,9938
327,9939
330,9940
331,9942
328,9943
325,9944
326,9945
328,9946
327,9947
325,9948
321,9949
317,9950
310,9951
303,9952
296,9952
292,9953
293,9954
296,9955
298,9956
300,9957
301,9958
301,9959
302,9960
305,9961
305,9962
306,9963
306,9964
306,9965
306,9966
306,9967
307,9968
307,9969
307,9970
308,9971
308,9972
308,9973
312,9974
316,9975
318,9976
323,9977
331,9978
337,9979
340,9980
344,9981
345,9982
342,9984
334,9985
324,9986
313,9987
307,9988
306,9989
304,9990
305,9991
309,9992
314,9993
321,9994
326,9995
330,9996
330,9997
327,9998
321,9999
316,10000
313,10001
313,10002
316,10003
322,10003
324,10004
324,10005
325,10006
324,10007
318,10008
310,10009
305,10010
301,10011
299,10012
296,10013
294,10014
294,10015
298,10016
302,10017
304,10018
305,10019
305,10020
305,10021
304,10022
303,10023
305,10024
309,10025
316,10027
322,10028
325,10029
325,10030
325,10031
325,10032
326,10033
326,10034
323,10035
320,10036
319,10037
321,10038
323,10039
324,10040
324,10041
324,10042
320,10043
313,10044
308,10045
306,10046
304,10047
305,10048
306,10049
307,10050
308,10051
309,10052
310,10053
314,10054
319,10055
322,10055
324,10056
325,10057
329,10058
334,10059
336,10060
332,10061
326,10062
319,10063
312,10064
304,10065
300,10066
301,10067
306,10068
309,10070
313,10071
319,10072
325,10073
329,10074
329,10075
326,10076
321,10077
316,10078
313,10079
309,10080
305,10081
302,10082
304,10083
308,10084
311,10085
314,10086
315,10087
316,10088
316,10089
317,10090
319,10091
324,10092
329,10093
331,10094
329,10095
324,10096
317,10097
308,10098
299,10099
296,10100
299,10101
304,10102
307,10103
309,10104
310,10105
309,10106
306,10106
305,10107
307,10108
307,10109
309,10110
313,10112
319,10113
323,10114
325,10115
327,10116
327,10117
325,10118
320,10119
313,10120
306,10121
302,10122
303,10123
306,10124
310,10125
314,10126
319,10127
321,10128
322,10129
321,10130
321,10131
320,10132
315,10133
310,10134
311,10135
316,10136
320,10137
324,10138
326,10139
324,10140
319,10141
315,10142
312,10143
314,10144
313,10145
308,10146
304,10147
302,10148
303,10149
305,10150
311,10151
317,10152
320,10153
322,10155
321,10156
319,10157
314,10158
312,10159
310,10159
307,10160
309,10161
310,10162
312,10163
316,10164
319,10165
320,10166
320,10167
319,10168
314,10169
308,10170
302,10171
299,10172
297,10173
297,10174
302,10175
310,10176
318,10177
324,10178
327,10179
328,10180
328,10181
327,10182
324,10183
322,10184
320,10185
317,10186
314,10187
312,10188
309,10189
309,10190
314,10191
317,10192
321,10193
323,10194
322,10195
327,10196
330,10198
330,10199
326,10200
320,10201
314,10202
309,10203
305,10204
302,10205
298,10206
297,10207
295,10208
295,10209
299,10210
303,10210
306,10211
307,10212
305,10213
303,10214
301,10215
302,10216
310,10217
318,10218
322,10219
325,10220
323,10221
319,10222
313,10223
308,10224
307,10225
308,10226
308,10227
307,10228
310,10229
313,10230
316,10231
319,10232
321,10233
321,10234
318,10235
314,10236
310,10237
308,10238
306,10240
306,10241
309,10242
316,10243
325,10244
336,10245
342,10246
346,10247
345,10248
339,10249
331,10250
322,10251
315,10252
310,10253
305,10254
302,10255
300,10256
300,10257
302,10258
306,10259
309,10260
312,10261
313,10262
313,10262
313,10263
310,10264
307,10265
305,10266
304,10267
305,10268
309,10269
315,10270
318,10271
320,10272
321,10273
316,10274
312,10275
309,10276
311,10277
316,10278
321,10279
324,10280
328,10281
329,10283
327,10284
324,10285
321,10286
319,10287
315,10288
310,10289
307,10290
307,10291
307,10292
306,10293
308,10294
313,10295
320,10296
325,10297
325,10298
323,10299
322,10300
323,10301
322,10302
319,10303
316,10304
312,10305
309,10306
305,10307
301,10308
298,10309
298,10310
299,10311
300,10312
303,10313
305,10314
307,10314
309,10315
316,10316
322,10317
325,10318
325,10319
323,10320
319,10321
314,10322
308,10323
304,10324
300,10326
301,10327
304,10328
308,10329
311,10330
311,10331
311,10332
311,10333
307,10334
305,10335
305,10336
306,10337
306,10338
303,10339
298,10340
296,10341
298,10342
300,10343
303,10344
310,10345
322,10346
334,10347
340,10348
343,10349
344,10350
340,10351
335,10352
330,10353
324,10354
318,10355
312,10356
307,10357
305,10358
303,10359
301,10360
301,10361
302,10362
303,10363
302,10364
300,10365
298,10365
298,10366
299,10368
302,10369
305,10370
307,10371
309,10372
311,10373
312,10374
311,10375
311,10376
313,10377
315,10378
313,10379
310,10380
310,10381
308,10382
310,10383
314,10384
318,10385
322,10386
325,10387
327,10388
328,10389
325,10390
321,10391
315,10392
309,10393
303,10394
296,10395
291,10396
289,10397
289,10398
293,10399
298,10400
303,10401
308,10402
315,10403
324,10404
330,10405
332,10406
330,10407
323,10408
318,10409
319,10411
323,10412
323,10413
322,10414
318,10415
313,10416
307,10417
301,10418
295,10419
292,10419
292,10420
293,10421
293,10422
295,10423
299,10424
308,10425
317,10426
324,10427
329,10428
329,10429
328,10430
322,10431
315,10432
307,10433
300,10434
296,10435
294,10436
295,10437
297,10438
299,10439
301,10440
303,10441
306,10442
314,10443
323,10444
332,10445
339,10446
344,10447
347,10448
347,10449
343,10450
338,10451
331,10452
324,10454
320,10455
319,10456
316,10457
312,10458
309,10459
306,10460
305,10461
304,10462
301,10463
299,10464
297,10465
300,10466
306,10467
313,10468
318,10469
322,10470
328,10470
331,10471
331,10472
327,10473
321,10474
315,10475
307,10476
301,10477
299,10478
300,10479
302,10480
303,10481
305,10482
305,10483
306,10484
306,10485
305,10486
304,10487
303,10488
305,10489
307,10490
307,10491
306,10492
303,10493
300,10494
298,10496
297,10497
296,10498
297,10499
301,10500
305,10501
309,10502
311,10503
311,10504
309,10505
309,10506
312,10507
314,10508
316,10509
316,10510
316,10511
317,10512
315,10513
315,10514
316,10515
322,10516
329,10517
335,10518
337,10519
334,10520
328,10521
322,10522
316,10522
314,10523
313,10524
311,10525
307,10526
303,10527
301,10528
302,10529
307,10530
311,10531
315,10532
316,10533
316,10534
316,10535
314,10536
312,10537
310,10539
307,10540
305,10541
304,10542
304,10543
304,10544
305,10545
307,10546
308,10547
309,10548
308,10549
307,10550
306,10551
305,10552
303,10553
301,10554
301,10555
300,10556
301,10557
302,10558
305,10559
312,10560
321,10561
330,10562
336,10563
343,10564
345,10565
340,10566
335,10567
330,10568
329,10569
328,10570
326,10571
325,10572
326,10573
328,10574
329,10574
330,10575
331,10576
328,10577
323,10578
319,10579
315,10580
311,10582
308,10583
306,10584
303,10585
300,10586
297,10587
295,10588
294,10589
294,10590
294,10591
295,10592
296,10593
296,10594
297,10595
298,10596
302,10597
310,10598
320,10599
330,10600
340,10601
347,10602
349,10603
349,10604
346,10605
344,10606
341,10607
337,10608
332,10609
326,10610
320,10611
314,10612
309,10613
305,10614
301,10615
299,10616
298,10617
298,10618
300,10619
302,10620
303,10621
304,10622
304,10624
304,10625
302,10626
299,10626
296,10627
294,10628
295,10629
297,10630
297,10631
298,10632
301,10633
306,10634
310,10635
311,10636
310,10637
309,10638
309,10639
312,10640
319,10641
325,10642
333,10643
338,10644
343,10645
346,10646
344,10647
338,10648
332,10649
324,10650
318,10651
315,10652
315,10653
317,10654
319,10655
322,10656
322,10657
322,10658
321,10659
318,10660
312,10661
305,10662
301,10663
300,10664
302,10665
304,10667
304,10668
303,10669
301,10670
299,10671
297,10672
295,10673
295,10674
298,10675
303,10676
307,10677
312,10678
315,10678
318,10679
322,10680
326,10681
329,10682
335,10683
345,10684
352,10685
354,10686
352,10687
347,10688
341,10689
332,10690
324,10691
314,10692
307,10693
302,10694
301,10695
300,10696
299,10697
297,10698
299,10699
301,10700
304,10701
307,10702
309,10703
310,10704
307,10705
301,10706
295,10707
291,10708
291,10710
294,10711
297,10712
300,10713
302,10714
303,10715
305,10716
307,10717
308,10718
311,10719
317,10720
323,10721
330,10722
336,10723
342,10724
344,10725
342,10726
335,10727
327,10728
320,10729
315,10729
311,10730
309,10731
308,10732
308,10733
310,10734
313,10735
314,10736
314,10737
314,10738
312,10739
310,10740
313,10741
316,10742
319,10743
324,10744
333,10745
338,10746
340,10747
339,10748
338,10749
335,10750
329,10752
319,10753
311,10754
306,10755
305,10756
306,10757
305,10758
304,10759
303,10760
302,10761
301,10762
301,10763
299,10764
299,10765
300,10766
300,10767
299,10768
300,10769
299,10770
303,10771
307,10772
310,10773
312,10774
312,10775
311,10776
309,10777
310,10778
311,10779
311,10780
312,10781
315,10781
318,10782
322,10783
325,10784
328,10785
331,10786
331,10787
330,10788
331,10789
331,10790
330,10791
328,10792
324,10793
317,10795
311,10796
307,10797
303,10798
303,10799
303,10800
303,10801
306,10802
309,10803
317,10804
324,10805
328,10806
330,10807
330,10808
328,10809
324,10810
318,10811
314,10812
314,10813
318,10814
324,10815
328,10816
328,10817
327,10818
322,10819
314,10820
306,10821
302,10822
302,10823
300,10824
303,10825
305,10826
307,10827
308,10828
308,10829
306,10830
304,10831
302,10832
300,10833
299,10833
299,10834
299,10835
304,10836
315,10838
331,10839
345,10840
354,10841
356,10842
353,10843
344,10844
334,10845
326,10846
320,10847
316,10848
311,10849
307,10850
305,10851
306,10852
309,10853
312,10854
314,10855
316,10856
319,10857
319,10858
315,10859
311,10860
306,10861
302,10862
299,10863
296,10864
295,10865
297,10866
304,10867
314,10868
324,10869
338,10870
350,10871
354,10872
351,10873
345,10874
338,10875
328,10876
315,10877
303,10878
294,10880
295,10881
303,10882
315,10883
326,10884
331,10885
332,10885
329,10886
321,10887
314,10888
311,10889
309,10890
307,10891
306,10892
305,10893
305,10894
304,10895
304,10896
303,10897
302,10898
299,10899
295,10900
295,10901
295,10902
298,10903
301,10904
303,10905
306,10906
308,10907
312,10908
317,10909
321,10910
322,10911
323,10912
324,10913
326,10914
326,10915
324,10916
321,10917
320,10918
319,10919
321,10920
328,10921
336,10923
341,10924
343,10925
343,10926
338,10927
329,10928
319,10929
312,10930
309,10931
309,10932
308,10933
306,10934
303,10935
301,10936
297,10937
294,10937
295,10938
296,10939
299,10940
303,10941
309,10942
314,10943
319,10944
322,10945
324,10946
323,10947
319,10948
311,10949
306,10950
307,10951
316,10952
326,10953
332,10954
335,10955
335,10956
333,10957
327,10958
321,10959
317,10960
314,10961
314,10962
313,10963
310,10964
308,10966
308,10967
308,10968
307,10969
303,10970
301,10971
299,10972
299,10973
299,10974
300,10975
302,10976
305,10977
310,10978
317,10979
326,10980
330,10981
332,10982
332,10983
330,10984
325,10985
320,10986
316,10987
313,10988
313,10989
313,10989
309,10990
305,10991
304,10992
305,10993
308,10994
311,10995
313,10996
314,10997
318,10998
326,10999
332,11000
334,11001
333,11002
329,11003
324,11004
320,11005
315,11006
307,11008
302,11009
299,11010
300,11011
301,11012
302,11013
303,11014
303,11015
302,11016
304,11017
309,11018
318,11019
327,11020
338,11021
344,11022
345,11023
340,11024
330,11025
318,11026
310,11027
307,11028
304,11029
301,11030
301,11031
300,11032
300,11033
301,11034
302,11035
303,11036
302,11037
302,11038
302,11039
304,11040
305,11040
306,11041
306,11042
305,11043
302,11044
300,11045
297,11046
297,11047
302,11048
312,11049
320,11051
327,11052
333,11053
335,11054
333,11055
326,11056
317,11057
313,11058
314,11059
319,11060
322,11061
325,11062
327,11063
328,11064
329,11065
327,11066
323,11067
319,11068
315,11069
311,11070
306,11071
303,11072
298,11073
296,11074
297,11075
303,11076
311,11077
318,11078
324,11079
327,11080
328,11081
324,11082
319,11083
313,11084
312,11085
314,11086
314,11087
314,11088
316,11089
318,11090
317,11091
313,11092
310,11092
306,11094
303,11095
300,11096
299,11097
299,11098
300,11099
302,11100
305,11101
308,11102
310,11103
310,11104
307,11105
305,11106
306,11107
305,11108
303,11109
302,11110
302,11111
302,11112
303,11113
305,11114
306,11115
306,11116
307,11117
309,11118
312,11119
314,11120
316,11121
317,11122
317,11123
317,11124
321,11125
324,11126
326,11127
325,11128
323,11129
319,11130
313,11131
309,11132
307,11133
309,11134
312,11136
316,11137
320,11138
321,11139
320,11140
317,11141
313,11142
311,11143
310,11144
310,11144
309,11145
311,11146
312,11147
313,11148
312,11149
311,11150
311,11151
310,11152
311,11153
314,11154
317,11155
323,11156
331,11157
334,11158
335,11159
336,11160
336,11161
332,11162
327,11163
321,11164
316,11165
312,11166
311,11167
309,11168
306,11169
306,11170
305,11171
303,11172
301,11173
298,11174
296,11175
295,11176
294,11177
296,11179
300,11180
306,11181
311,11182
315,11183
317,11184
317,11185
318,11186
317,11187
317,11188
316,11189
315,11190
316,11191
316,11192
318,11193
319,11194
319,11195
321,11196
325,11196
329,11197
333,11198
335,11199
336,11200
335,11201
329,11202
321,11203
314,11204
306,11205
300,11206
297,11207
295,11208
293,11209
293,11210
295,11211
295,11212
296,11213
297,11214
300,11215
304,11216
309,11217
312,11218
315,11219
316,11220
316,11222
316,11223
312,11224
306,11225
301,11226
299,11227
302,11228
308,11229
315,11230
321,11231
328,11232
332,11233
334,11234
334,11235
333,11236
333,11237
328,11238
322,11239
315,11240
310,11241
306,11242
303,11243
301,11244
299,11245
300,11246
307,11247
317,11248
326,11248
334,11249
337,11250
338,11251
335,11252
330,11253
321,11254
312,11255
303,11256
299,11257
299,11258
301,11259
305,11260
313,11261
322,11262
327,11264
328,11265
328,11266
327,11267
323,11268
316,11269
309,11270
304,11271
301,11272
297,11273
294,11274
291,11275
289,11276
289,11277
289,11278
290,11279
289,11280
290,11281
290,11282
290,11283
291,11284
291,11285
293,11286
295,11287
297,11288
299,11289
303,11290
308,11291
313,11292
319,11293
322,11294
323,11295
324,11296
328,11297
333,11298
336,11299
335,11299
332,11300
327,11301
322,11302
318,11303
314,11304
315,11305
321,11307
326,11308
330,11309
331,11310
329,11311
325,11312
317,11313
311,11314
308,11315
308,11316
310,11317
310,11318
311,11319
311,11320
311,11321
310,11322
314,11323
321,11324
329,11325
333,11326
332,11327
329,11328
324,11329
319,11330
320,11331
321,11332
326,11333
331,11334
332,11335
332,11336
330,11337
324,11338
315,11339
305,11340
302,11341
304,11342
306,11343
307,11344
308,11345
309,11346
307,11347
303,11348
299,11350
295,11351
292,11352
291,11352
291,11353
291,11354
293,11355
295,11356
301,11357
307,11358
313,11359
319,11360
323,11361
326,11362
326,11363
324,11364
324,11365
326,11366
329,11367
330,11368
328,11369
324,11370
319,11371
315,11372
309,11373
304,11374
301,11375
300,11376
301,11377
302,11378
303,11379
306,11380
310,11381
313,11382
316,11383
319,11384
324,11385
326,11386
327,11387
326,11388
327,11389
329,11390
328,11392
328,11393
326,11394
325,11395
328,11396
330,11397
330,11398
329,11399
328,11400
326,11401
326,11402
327,11403
326,11403
322,11404
320,11405
318,11406
316,11407
312,11408
307,11409
303,11410
299,11411
296,11412
293,11413
290,11414
289,11415
289,11416
291,11417
291,11418
291,11419
293,11420
297,11421
303,11422
313,11423
324,11424
334,11425
341,11426
344,11427
342,11428
335,11429
327,11430
321,11431
315,11432
308,11433
304,11435
304,11436
307,11437
311,11438
314,11439
315,11440
314,11441
312,11442
307,11443
306,11444
305,11445
308,11446
312,11447
315,11448
317,11449
317,11450
315,11451
312,11452
308,11453
306,11454
306,11454
308,11455
310,11456
312,11457
316,11458
319,11459
322,11460
326,11461
329,11462
332,11463
331,11464
329,11465
325,11466
319,11467
315,11468
311,11469
310,11470
312,11471
312,11472
314,11473
317,11474
317,11475
315,11476
313,11478
310,11479
305,11480
301,11481
298,11482
299,11483
300,11484
301,11485
306,11486
310,11487
312,11488
311,11489
309,11490
305,11491
301,11492
297,11493
295,11494
295,11495
295,11496
295,11497
296,11498
296,11499
300,11500
305,11501
312,11502
318,11503
325,11504
331,11505
335,11505
339,11506
340,11507
335,11508
326,11509
316,11510
308,11511
302,11512
303,11513
309,11514
320,11515
329,11516
334,11517
336,11518
336,11520
336,11521
332,11522
323,11523
316,11524
309,11525
306,11526
305,11527
305,11528
310,11529
317,11530
323,11531
326,11532
325,11533
321,11534
315,11535
310,11536
307,11537
304,11538
307,11539
311,11540
313,11541
315,11542
318,11543
319,11544
318,11545
317,11546
316,11547
313,11548
311,11549
308,11550
306,11551
305,11552
306,11553
311,11554
315,11555
318,11556
320,11557
320,11557
318,11558
314,11559
310,11560
309,11561
308,11563
309,11564
310,11565
311,11566
311,11567
311,11568
314,11569
316,11570
318,11571
318,11572
319,11573
319,11574
318,11575
318,11576
316,11577
313,11578
310,11579
305,11580
302,11581
300,11582
301,11583
302,11584
303,11585
303,11586
304,11587
304,11588
306,11589
308,11590
311,11591
313,11592
316,11593
318,11594
320,11595
320,11596
323,11597
328,11598
335,11599
341,11600
344,11601
344,11602
342,11603
336,11604
327,11606
319,11607
315,11608
309,11609
305,11609
301,11610
298,11611
297,11612
298,11613
298,11614
299,11615
300,11616
300,11617
301,11618
301,11619
300,11620
301,11621
301,11622
304,11623
315,11624
324,11625
330,11626
334,11627
335,11628
335,11629
332,11630
329,11631
326,11632
326,11633
323,11634
320,11635
315,11636
312,11637
310,11638
308,11639
306,11640
306,11641
307,11642
312,11643
316,11644
319,11645
319,11646
316,11648
313,11649
309,11650
304,11651
301,11652
305,11653
311,11654
315,11655
318,11656
319,11657
319,11658
318,11659
315,11660
312,11660
308,11661
306,11662
305,11663
306,11664
310,11665
316,11666
322,11667
328,11668
331,11669
331,11670
327,11671
320,11672
311,11673
305,11674
305,11675
304,11676
305,11677
306,11678
308,11679
311,11680
315,11681
318,11682
320,11683
324,11684
325,11685
323,11686
319,11687
314,11688
310,11689
307,11691
308,11692
310,11693
311,11694
313,11695
316,11696
319,11697
321,11698
320,11699
317,11700
313,11701
309,11702
306,11703
304,11704
302,11705
303,11706
302,11707
302,11708
306,11709
311,11710
316,11711
322,11712
327,11712
333,11713
334,11714
332,11715
330,11716
329,11717
329,11718
328,11719
326,11720
325,11721
323,11722
318,11723
315,11724
311,11725
308,11726
305,11727
303,11728
303,11729
303,11730
304,11731
306,11732
308,11734
309,11735
311,11736
311,11737
311,11738
311,11739
312,11740
316,11741
318,11742
318,11743
316,11744
313,11745
309,11746
304,11747
299,11748
296,11749
294,11750
294,11751
301,11752
312,11753
322,11754
332,11755
340,11756
343,11757
338,11758
330,11759
320,11760
313,11761
310,11762
307,11763
303,11763
301,11764
304,11765
310,11766
315,11767
320,11768
324,11769
325,11770
324,11771
320,11772
314,11773
308,11774
307,11776
307,11777
306,11778
307,11779
308,11780
310,11781
311,11782
312,11783
314,11784
314,11785
312,11786
309,11787
305,11788
303,11789
307,11790
310,11791
313,11792
317,11793
320,11794
322,11795
323,11796
320,11797
316,11798
313,11799
314,11800
316,11801
318,11802
323,11803
331,11804
333,11805
333,11806
330,11807
329,11808
327,11809
324,11810
323,11811
323,11812
323,11813
320,11814
318,11814
314,11815
307,11816
300,11817
296,11819
295,11820
295,11821
294,11822
296,11823
298,11824
302,11825
306,11826
309,11827
309,11828
308,11829
307,11830
305,11831
306,11832
307,11833
311,11834
316,11835
321,11836
328,11837
336,11838
340,11839
338,11840
333,11841
326,11842
317,11843
308,11844
305,11845
304,11846
304,11847
304,11848
305,11849
311,11850
317,11851
320,11852
321,11853
321,11854
320,11855
320,11856
319,11857
317,11858
315,11859
315,11860
315,11862
315,11863
314,11864
315,11865
314,11866
312,11867
309,11867
307,11868
306,11869
306,11870
309,11871
313,11872
317,11873
323,11874
330,11875
334,11876
336,11877
334,11878
331,11879
327,11880
327,11881
329,11882
328,11883
327,11884
325,11885
319,11886
313,11887
306,11888
299,11889
293,11890
290,11891
287,11892
286,11893
286,11894
288,11895
292,11896
295,11897
300,11898
304,11899
306,11900
306,11901
304,11902
302,11904
302,11905
305,11906
310,11907
316,11908
321,11909
325,11910
329,11911
337,11912
344,11913
351,11914
355,11915
354,11916
354,11917
351,11918
345,11918
336,11919
326,11920
319,11921
315,11922
312,11923
310,11924
308,11925
306,11926
305,11927
304,11928
300,11929
297,11930
294,11931
291,11932
293,11933
297,11934
302,11935
306,11936
308,11937
310,11938
310,11939
310,11940
308,11941
306,11942
303,11943
300,11944
300,11945
302,11947
306,11948
312,11949
317,11950
322,11951
326,11952
326,11953
323,11954
320,11955
324,11956
331,11957
336,11958
339,11959
337,11960
333,11961
326,11962
319,11963
313,11964
308,11965
305,11966
307,11967
311,11968
315,11969
318,11970
322,11970
326,11971
325,11972
321,11973
317,11974
313,11975
308,11976
304,11977
302,11978
302,11979
303,11980
303,11981
304,11982
303,11983
302,11984
302,11985
305,11986
307,11987
308,11988
307,11990
305,11991
303,11992
299,11993
297,11994
300,11995
307,11996
314,11997
320,11998
324,11999
330,12000
335,12001
336,12002
337,12003
337,12004
339,12005
339,12006
336,12007
331,12008
327,12009
324,12010
326,12011
326,12012
326,12013
324,12014
320,12015
315,12016
310,12017
305,12018
302,12019
299,12020
297,12021
295,12022
294,12022
293,12023
294,12024
296,12025
300,12026
305,12027
310,12028
313,12029
315,12030
316,12032
317,12033
319,12034
317,12035
315,12036
315,12037
314,12038
314,12039
312,12040
311,12041
311,12042
313,12043
317,12044
319,12045
318,12046
317,12047
315,12048
313,12049
311,12050
310,12051
309,12052
311,12053
313,12054
315,12055
315,12056
316,12057
315,12058
314,12059
314,12060
313,12061
311,12062
307,12063
304,12064
302,12065
302,12066
303,12067
304,12068
305,12069
307,12070
311,12071
314,12072
322,12073
330,12075
337,12075
339,12076
341,12077
343,12078
343,12079
342,12080
339,12081
339,12082
339,12083
335,12084
327,12085
321,12086
316,12087
311,12088
304,12089
297,12090
292,12091
289,12092
289,12093
292,12094
295,12095
299,12096
302,12097
306,12098
309,12099
310,12100
309,12101
307,12102
304,12103
303,12104
301,12105
300,12106
299,12107
299,12108
300,12109
301,12110
303,12111
304,12112
307,12113
309,12114
311,12115
318,12116
326,12118
334,12119
344,12120
352,12121
354,12122
351,12123
342,12124
332,12125
323,12126
315,12126
311,12127
307,12128
306,12129
309,12130
315,12131
320,12132
325,12133
327,12134
329,12135
327,12136
324,12137
318,12138
315,12139
313,12140
312,12141
312,12142
313,12143
313,12144
313,12145
313,12146
312,12147
318,12148
329,12149
338,12150
344,12151
346,12152
344,12153
336,12154
322,12155
308,12156
299,12157
296,12158
294,12160
291,12161
289,12162
288,12163
287,12164
287,12165
290,12166
292,12167
295,12168
298,12169
303,12170
307,12171
309,12172
311,12173
313,12174
313,12175
310,12176
305,12177
299,12177
296,12178
297,12179
304,12180
315,12181
325,12182
330,12183
333,12184
331,12185
331,12186
333,12187
339,12188
343,12189
347,12190
348,12191
347,12192
341,12193
334,12194
327,12195
322,12196
320,12197
318,12198
318,12199
316,12200
312,12201
307,12203
303,12204
299,12205
297,12206
296,12207
300,12208
304,12209
308,12210
309,12211
306,12212
303,12213
300,12214
297,12215
295,12216
295,12217
296,12218
298,12219
299,12220
300,12221
299,12222
301,12223
307,12224
314,12225
321,12226
327,12227
330,12228
330,12229
326,12229
320,12230
314,12231
315,12232
319,12233
326,12234
332,12235
337,12236
339,12237
340,12238
340,12239
336,12240
329,12241
323,12242
317,12243
310,12244
303,12246
297,12247
293,12248
294,12249
296,12250
298,12251
300,12252
301,12253
300,12254
299,12255
299,12256
299,12257
300,12258
302,12259
306,12260
311,12261
317,12262
321,12263
324,12264
328,12265
330,12266
329,12267
327,12268
324,12269
319,12270
320,12271
325,12272
328,12273
333,12274
336,12275
337,12276
339,12277
335,12278
328,12279
319,12280
312,12280
308,12281
304,12282
300,12283
297,12284
296,12285
295,12286
297,12288
300,12289
303,12290
305,12291
305,12292
305,12293
303,12294
302,12295
299,12296
299,12297
298,12298
299,12299
300,12300
304,12301
308,12302
313,12303
320,12304
325,12305
328,12306
335,12307
341,12308
345,12309
348,12310
349,12311
348,12312
345,12313
338,12314
331,12315
325,12316
321,12317
316,12318
313,12319
312,12320
311,12321
309,12322
308,12323
307,12324
305,12325
303,12326
301,12327
300,12328
301,12329
302,12331
304,12332
306,12332
307,12333
308,12334
310,12335
314,12336
319,12337
320,12338
320,12339
320,12340
319,12341
319,12342
321,12343
326,12344
335,12345
342,12346
346,12347
349,12348
348,12349
339,12350
325,12351
314,12352
307,12353
303,12354
301,12355
300,12356
297,12357
293,12358
291,12359
292,12360
293,12361
295,12362
298,12363
299,12364
300,12365
299,12366
298,12367
297,12368
296,12369
