,419
314,420
314,421
315,422
315,423
315,424
315,425
315,427
315,428
315,429
315,430
315,431
315,432
315,433
314,434
314,435
314,436
314,437
314,438
314,439
315,439
314,440
315,441
315,442
315,443
315,444
316,445
316,446
316,447
316,448
316,449
316,450
316,451
315,452
315,453
315,454
315,455
315,456
315,457
315,458
315,459
315,460
316,461
316,462
316,463
316,464
317,465
317,466
317,467
317,468
316,470
317,471
316,472
316,473
316,474
316,475
316,476
315,477
316,478
315,479
316,480
316,481
316,482
316,483
317,484
317,485
317,486
317,487
317,488
317,489
317,490
317,491
316,491
316,492
316,493
316,494
316,495
316,496
316,497
316,498
316,499
316,500
317,501
317,502
317,503
317,504
317,505
317,506
317,507
317,508
317,509
317,510
317,512
316,513
316,514
316,515
316,516
316,517
316,518
316,519
316,520
316,521
316,522
317,523
317,524
317,525
318,526
317,527
318,528
318,529
318,530
318,531
317,532
317,533
317,534
317,535
317,536
317,537
317,538
317,539
317,540
317,541
317,542
317,543
318,543
318,544
318,545
318,546
318,547
318,548
318,549
318,550
318,551
318,552
317,553
317,555
317,556
317,557
317,558
317,559
317,560
317,561
317,562
317,563
317,564
317,565
317,566
317,567
317,568
317,569
317,570
317,571
317,572
316,573
316,574
316,575
316,576
316,577
316,578
316,579
316,580
316,581
316,582
317,583
317,584
317,585
317,586
317,587
318,588
317,589
317,590
317,591
317,592
317,593
316,594
316,594
316,595
316,596
316,598
316,599
316,600
316,601
316,602
316,603
317,604
317,605
317,606
317,607
317,608
317,609
317,610
316,611
316,612
316,613
316,614
315,615
315,616
315,617
315,618
315,619
315,620
315,621
315,622
315,623
315,624
316,625
316,626
316,627
316,628
316,629
316,630
315,631
315,632
315,633
315,634
314,635
314,636
314,637
314,638
314,640
314,641
314,642
314,643
315,644
315,645
315,646
315,647
315,648
315,648
315,649
315,650
315,651
314,652
314,653
314,654
314,655
313,656
313,657
313,658
313,659
313,660
313,661
313,662
314,663
314,664
314,665
314,666
314,667
314,668
314,669
314,670
313,671
313,672
313,673
313,674
313,675
313,676
312,677
313,678
312,679
312,680
313,681
313,683
313,684
313,685
313,686
313,687
313,688
313,689
313,690
313,691
313,692
312,693
312,694
312,695
312,696
312,697
312,698
312,699
312,700
312,700
312,701
312,702
312,703
312,704
312,705
313,706
313,707
313,708
312,709
313,710
312,711
312,712
312,713
312,714
312,715
312,716
312,717
312,718
312,719
312,720
312,721
312,722
312,723
313,724
313,726
313,727
313,728
313,729
313,730
313,731
312,732
312,733
312,734
312,735
312,736
312,737
311,738
312,739
312,740
311,741
312,742
312,743
312,744
312,745
312,746
313,747
312,748
312,749
312,750
312,751
312,752
312,752
312,753
312,754
311,755
311,756
311,757
311,758
311,759
311,760
312,761
312,762
312,763
312,764
312,765
312,766
312,768
312,769
312,770
312,771
312,772
312,773
311,774
311,775
311,776
311,777
311,778
311,779
311,780
311,781
311,782
311,783
312,784
312,785
312,786
312,787
312,788
312,789
312,790
312,791
311,792
311,793
311,794
311,795
311,796
311,797
311,798
311,799
311,800
311,801
312,802
312,803
312,803
312,804
312,805
312,806
312,807
312,808
312,809
312,811
312,812
312,813
311,814
311,815
311,816
311,817
311,818
311,819
311,820
311,821
311,822
311,823
311,824
312,825
312,826
312,827
312,828
312,829
312,830
312,831
312,832
312,833
311,834
312,835
311,836
311,837
311,838
311,839
311,840
311,841
312,842
312,843
312,844
312,845
312,846
312,847
312,848
312,849
313,850
312,851
312,852
312,854
312,855
312,856
312,857
311,857
312,858
312,859
312,860
312,861
312,862
313,863
313,864
313,865
313,866
313,867
313,868
313,869
313,870
313,871
312,872
312,873
312,874
312,875
312,876
312,877
312,878
312,879
312,880
312,881
312,882
312,883
313,884
313,885
313,886
313,887
313,888
313,889
313,890
313,891
312,892
312,893
312,894
312,896
312,897
312,898
312,899
312,900
312,901
312,902
312,903
313,904
313,905
313,906
313,907
313,908
313,909
313,910
313,910
313,911
313,912
313,913
312,914
312,915
312,916
312,917
312,918
312,919
312,920
312,921
312,922
313,923
313,924
313,925
313,926
313,927
313,928
313,929
313,930
313,931
313,932
313,933
313,934
312,935
312,936
313,937
313,939
312,940
313,941
313,942
313,943
313,944
313,945
313,946
314,947
314,948
314,949
314,950
314,951
313,952
313,953
313,954
313,955
313,956
313,957
313,958
313,959
313,960
313,961
313,961
313,962
313,963
313,964
313,965
314,966
314,967
314,968
314,969
314,970
313,971
313,972
313,973
313,974
313,975
313,976
313,977
313,978
313,979
313,980
313,982
313,983
313,984
313,985
313,986
314,987
314,988
314,989
314,990
314,991
314,992
314,993
314,994
314,995
314,996
314,997
314,998
314,999
314,1000
314,1001
314,1002
314,1003
315,1004
315,1005
315,1006
315,1007
315,1008
315,1009
315,1010
315,1011
315,1012
315,1013
315,1013
315,1014
315,1015
315,1016
314,1017
315,1018
315,1019
315,1020
315,1021
315,1022
315,1024
316,1025
316,1026
316,1027
316,1028
316,1029
316,1030
316,1031
316,1032
316,1033
316,1034
316,1035
316,1036
315,1037
316,1038
316,1039
316,1040
316,1041
316,1042
316,1043
316,1044
317,1045
317,1046
317,1047
317,1048
317,1049
317,1050
317,1051
317,1052
317,1053
317,1054
317,1055
317,1056
317,1057
317,1058
317,1059
317,1060
317,1061
318,1062
318,1063
318,1064
318,1064
318,1065
318,1067
319,1068
318,1069
318,1070
318,1071
318,1072
318,1073
318,1074
318,1075
318,1076
318,1077
318,1078
318,1079
318,1080
318,1081
318,1082
318,1083
319,1084
319,1085
319,1086
319,1087
319,1088
319,1089
319,1090
319,1091
319,1092
319,1093
319,1094
318,1095
319,1096
319,1097
318,1098
319,1099
319,1100
319,1101
320,1102
320,1103
320,1104
320,1105
320,1106
320,1107
320,1108
321,1110
320,1111
320,1112
320,1113
320,1114
320,1115
320,1116
320,1117
320,1117
320,1118
320,1119
320,1120
321,1121
321,1122
321,1123
321,1124
322,1125
322,1126
322,1127
322,1128
322,1129
322,1130
322,1131
322,1132
322,1133
322,1134
321,1135
321,1136
321,1137
321,1138
322,1139
322,1140
322,1141
322,1142
322,1143
322,1144
322,1145
322,1146
322,1147
322,1148
322,1149
322,1150
322,1152
322,1153
322,1154
322,1155
322,1156
322,1157
322,1158
322,1159
322,1160
322,1161
323,1162
323,1163
323,1164
323,1165
323,1166
323,1167
323,1168
323,1168
323,1169
323,1170
323,1171
323,1172
322,1173
322,1174
322,1175
322,1176
322,1177
322,1178
322,1179
322,1180
322,1181
322,1182
322,1183
323,1184
322,1185
323,1186
323,1187
323,1188
323,1189
322,1190
322,1191
322,1192
322,1193
322,1195
322,1196
321,1197
321,1198
321,1199
321,1200
321,1201
321,1202
321,1203
321,1204
322,1205
322,1206
322,1207
322,1208
322,1209
322,1210
322,1211
322,1212
322,1213
321,1214
321,1215
321,1216
321,1217
321,1218
321,1219
321,1220
321,1220
321,1221
321,1222
321,1223
321,1224
321,1225
321,1226
321,1227
321,1228
321,1229
321,1230
321,1231
321,1232
321,1233
321,1234
321,1235
321,1236
321,1238
320,1239
321,1240
321,1241
321,1242
321,1243
321,1244
321,1245
321,1246
321,1247
321,1248
321,1249
321,1250
321,1251
320,1252
320,1253
320,1254
320,1255
320,1256
320,1257
320,1258
320,1259
320,1260
320,1261
320,1262
321,1263
320,1264
321,1265
320,1266
320,1267
321,1268
320,1269
320,1270
320,1271
320,1272
320,1272
320,1273
320,1274
320,1275
320,1276
320,1277
320,1278
320,1280
320,1281
320,1282
320,1283
320,1284
320,1285
320,1286
320,1287
320,1288
320,1289
320,1290
319,1291
319,1292
319,1293
319,1294
319,1295
318,1296
318,1297
318,1298
318,1299
318,1300
318,1301
319,1302
319,1303
319,1304
319,1305
319,1306
319,1307
319,1308
319,1309
319,1310
319,1311
318,1312
318,1313
318,1314
318,1315
318,1316
317,1317
318,1318
318,1319
318,1320
318,1321
317,1323
318,1324
318,1324
318,1325
318,1326
318,1327
318,1328
318,1329
318,1330
318,1331
317,1332
317,1333
317,1334
317,1335
317,1336
317,1337
317,1338
317,1339
317,1340
317,1341
317,1342
317,1343
317,1344
317,1345
318,1346
318,1347
318,1348
317,1349
318,1350
318,1351
317,1352
317,1353
317,1354
317,1355
316,1356
316,1357
316,1358
316,1359
316,1360
316,1361
316,1362
316,1363
317,1364
317,1366
317,1367
317,1368
317,1369
317,1370
317,1371
317,1372
317,1373
316,1374
316,1375
316,1376
316,1376
316,1377
316,1378
316,1379
316,1380
316,1381
316,1382
316,1383
316,1384
316,1385
316,1386
316,1387
316,1388
316,1389
316,1390
316,1391
316,1392
316,1393
316,1394
315,1395
315,1396
315,1397
315,1398
316,1399
315,1400
316,1401
315,1402
316,1403
316,1404
316,1405
316,1406
316,1408
316,1409
316,1410
316,1411
316,1412
316,1413
316,1414
316,1415
316,1416
315,1417
315,1418
315,1419
315,1420
315,1421
315,1422
315,1423
316,1424
316,1425
316,1426
316,1427
316,1427
315,1428
316,1429
316,1430
315,1431
315,1432
315,1433
315,1434
314,1435
314,1436
314,1437
314,1438
314,1439
314,1440
314,1441
315,1442
315,1443
315,1444
315,1445
315,1446
315,1447
315,1448
315,1449
315,1451
315,1452
315,1453
315,1454
314,1455
314,1456
314,1457
314,1458
314,1459
314,1460
314,1461
314,1462
315,1463
315,1464
315,1465
315,1466
315,1467
315,1468
315,1469
315,1470
315,1471
315,1472
315,1473
315,1474
315,1475
315,1476
314,1477
314,1478
314,1478
314,1479
314,1480
314,1481
314,1482
314,1483
314,1484
315,1485
315,1486
315,1487
315,1488
315,1489
315,1490
314,1491
314,1492
314,1494
314,1495
314,1496
314,1497
313,1498
313,1499
314,1500
313,1501
314,1502
314,1503
314,1504
314,1505
315,1506
315,1507
315,1508
315,1509
315,1510
315,1511
315,1512
315,1513
314,1514
314,1515
314,1516
314,1517
314,1518
314,1519
314,1520
314,1521
314,1522
314,1523
314,1524
314,1525
314,1526
315,1527
315,1528
315,1529
315,1530
315,1530
315,1531
314,1532
314,1533
314,1534
314,1536
314,1537
314,1538
314,1539
314,1540
314,1541
314,1542
314,1543
314,1544
314,1545
314,1546
314,1547
314,1548
314,1549
314,1550
314,1551
314,1552
314,1553
313,1554
313,1555
313,1556
313,1557
312,1558
312,1559
313,1560
313,1561
313,1562
313,1563
313,1564
313,1565
313,1566
313,1567
313,1568
313,1569
313,1570
313,1571
312,1572
312,1573
312,1574
312,1575
312,1576
311,1577
311,1579
311,1580
311,1581
311,1582
311,1582
311,1583
312,1584
312,1585
312,1586
312,1587
312,1588
312,1589
312,1590
312,1591
312,1592
312,1593
311,1594
311,1595
311,1596
311,1597
311,1598
311,1599
311,1600
311,1601
311,1602
311,1603
312,1604
311,1605
312,1606
312,1607
312,1608
312,1609
311,1610
312,1611
311,1612
311,1613
311,1614
310,1615
311,1616
311,1617
310,1618
310,1619
311,1620
311,1622
310,1623
311,1624
311,1625
311,1626
311,1627
311,1628
311,1629
311,1630
311,1631
311,1632
311,1633
311,1634
310,1634
310,1635
310,1636
310,1637
310,1638
310,1639
310,1640
310,1641
310,1642
310,1643
310,1644
311,1645
311,1646
311,1647
311,1648
311,1649
311,1650
311,1651
311,1652
310,1653
310,1654
310,1655
310,1656
309,1657
309,1658
309,1659
309,1660
310,1661
310,1662
310,1664
310,1665
310,1666
310,1667
310,1668
310,1669
310,1670
310,1671
310,1672
310,1673
310,1674
310,1675
309,1676
309,1677
309,1678
309,1679
309,1680
309,1681
309,1682
309,1683
310,1684
310,1685
310,1685
310,1686
310,1687
310,1688
310,1689
310,1690
310,1691
310,1692
310,1693
310,1694
309,1695
309,1696
309,1697
309,1698
309,1699
309,1700
309,1701
309,1702
310,1703
310,1704
310,1705
310,1707
310,1708
310,1709
310,1710
310,1711
310,1712
309,1713
309,1714
309,1715
309,1716
309,1717
309,1718
309,1719
309,1720
309,1721
309,1722
309,1723
310,1724
310,1725
310,1726
310,1727
311,1728
311,1729
311,1730
310,1731
311,1732
310,1733
310,1734
310,1735
310,1736
310,1737
310,1737
309,1738
309,1739
309,1740
310,1741
310,1742
310,1743
310,1744
310,1745
311,1746
311,1747
311,1748
311,1750
311,1751
311,1752
311,1753
311,1754
310,1755
310,1756
310,1757
310,1758
310,1759
310,1760
310,1761
310,1762
310,1763
311,1764
311,1765
311,1766
311,1767
312,1768
311,1769
312,1770
311,1771
311,1772
311,1773
311,1774
311,1775
311,1776
311,1777
311,1778
311,1779
311,1780
311,1781
311,1782
311,1783
311,1784
311,1785
312,1786
312,1787
312,1788
312,1788
312,1789
312,1790
312,1792
312,1793
312,1794
311,1795
312,1796
311,1797
311,1798
312,1799
311,1800
312,1801
312,1802
312,1803
312,1804
312,1805
312,1806
312,1807
312,1808
312,1809
312,1810
312,1811
312,1812
312,1813
312,1814
312,1815
312,1816
312,1817
312,1818
312,1819
312,1820
312,1821
312,1822
312,1823
313,1824
313,1825
313,1826
313,1827
313,1828
313,1829
313,1830
313,1831
314,1832
314,1833
313,1835
313,1836
313,1837
313,1838
313,1839
313,1840
313,1840
314,1841
314,1842
314,1843
313,1844
314,1845
314,1846
314,1847
314,1848
314,1849
314,1850
314,1851
314,1852
314,1853
314,1854
314,1855
314,1856
313,1857
313,1858
313,1859
313,1860
313,1861
314,1862
314,1863
314,1864
314,1865
314,1866
314,1867
314,1868
314,1869
314,1870
315,1871
314,1872
314,1873
314,1874
314,1875
314,1876
314,1878
314,1879
314,1880
314,1881
314,1882
314,1883
314,1884
314,1885
315,1886
315,1887
315,1888
315,1889
315,1890
315,1891
315,1892
315,1892
314,1893
314,1894
314,1895
314,1896
314,1897
314,1898
314,1899
314,1900
314,1901
315,1902
315,1903
315,1904
315,1905
315,1906
315,1907
315,1908
315,1909
316,1910
315,1911
315,1912
315,1913
315,1914
315,1915
315,1916
315,1917
315,1918
315,1920
315,1921
315,1922
315,1923
315,1924
315,1925
315,1926
315,1927
315,1928
315,1929
315,1930
315,1931
315,1932
315,1933
315,1934
315,1935
315,1936
315,1937
315,1938
315,1939
315,1940
315,1941
315,1942
315,1943
315,1943
315,1944
315,1945
316,1946
315,1947
315,1948
315,1949
316,1950
315,1951
315,1952
315,1953
315,1954
315,1955
315,1956
315,1957
315,1958
315,1959
315,1960
315,1961
315,1963
315,1964
315,1965
315,1966
315,1967
315,1968
315,1969
315,1970
315,1971
315,1972
315,1973
315,1974
315,1975
315,1976
315,1977
315,1978
315,1979
315,1980
315,1981
315,1982
315,1983
316,1984
315,1985
316,1986
316,1987
316,1988
316,1989
316,1990
316,1991
316,1992
316,1993
316,1994
316,1995
316,1995
316,1996
316,1997
316,1998
316,1999
316,2000
316,2001
316,2002
316,2003
316,2004
316,2006
316,2007
317,2008
316,2009
317,2010
316,2011
317,2012
316,2013
316,2014
316,2015
316,2016
316,2017
316,2018
316,2019
316,2020
316,2021
316,2022
316,2023
316,2024
317,2025
316,2026
317,2027
317,2028
317,2029
317,2030
317,2031
317,2032
316,2033
316,2034
316,2035
316,2036
316,2037
316,2038
316,2039
316,2040
316,2041
315,2042
316,2043
316,2044
316,2045
316,2046
316,2046
316,2048
316,2049
316,2050
316,2051
316,2052
316,2053
316,2054
316,2055
316,2056
315,2057
315,2058
315,2059
315,2060
315,2061
316,2062
316,2063
316,2064
316,2065
316,2066
316,2067
316,2068
316,2069
316,2070
316,2071
316,2072
316,2073
316,2074
316,2075
316,2076
316,2077
316,2078
316,2079
316,2080
316,2081
316,2082
317,2083
317,2084
317,2085
317,2086
317,2087
317,2088
317,2089
317,2091
317,2092
317,2093
317,2094
317,2095
317,2096
317,2097
317,2098
317,2098
317,2099
317,2100
317,2101
317,2102
317,2103
317,2104
317,2105
317,2106
317,2107
317,2108
317,2109
317,2110
317,2111
317,2112
317,2113
317,2114
317,2115
317,2116
317,2117
316,2118
316,2119
316,2120
316,2121
316,2122
316,2123
317,2124
317,2125
317,2126
317,2127
317,2128
317,2129
317,2130
317,2131
317,2132
316,2134
316,2135
316,2136
316,2137
316,2138
316,2139
316,2140
316,2141
316,2142
316,2143
316,2144
316,2145
316,2146
316,2147
316,2148
316,2149
316,2150
316,2150
316,2151
316,2152
316,2153
316,2154
315,2155
315,2156
315,2157
315,2158
315,2159
315,2160
315,2161
315,2162
315,2163
315,2164
316,2165
316,2166
316,2167
316,2168
316,2169
316,2170
316,2171
315,2172
315,2173
315,2174
315,2176
315,2177
315,2178
315,2179
316,2180
315,2181
316,2182
316,2183
316,2184
316,2185
316,2186
316,2187
316,2188
316,2189
316,2190
316,2191
316,2192
316,2193
316,2194
316,2195
316,2196
316,2197
316,2198
316,2199
316,2200
316,2201
316,2201
316,2202
316,2203
316,2204
316,2205
316,2206
316,2207
316,2208
316,2209
316,2210
316,2211
316,2212
316,2213
316,2214
316,2215
316,2216
316,2217
316,2219
316,2220
316,2221
316,2222
316,2223
316,2224
316,2225
316,2226
316,2227
316,2228
316,2229
316,2230
316,2231
316,2232
316,2233
316,2234
316,2235
315,2236
315,2237
315,2238
315,2239
315,2240
315,2241
316,2242
315,2243
316,2244
316,2245
316,2246
316,2247
316,2248
317,2249
317,2250
317,2251
317,2252
317,2252
317,2253
316,2254
316,2255
317,2256
316,2257
316,2258
316,2259
316,2260
316,2262
316,2263
316,2264
316,2265
316,2266
316,2267
317,2268
317,2269
317,2270
317,2271
316,2272
316,2273
316,2274
316,2275
316,2276
316,2277
316,2278
316,2279
316,2280
316,2281
316,2282
316,2283
317,2284
317,2285
317,2286
317,2287
317,2288
317,2289
317,2290
317,2291
316,2292
316,2293
316,2294
316,2295
316,2296
316,2297
315,2298
316,2299
316,2300
315,2301
316,2302
316,2304
316,2305
316,2305
316,2306
316,2307
316,2308
316,2309
316,2310
316,2311
316,2312
315,2313
316,2314
315,2315
315,2316
315,2317
315,2318
315,2319
315,2320
315,2321
315,2322
316,2323
315,2324
316,2325
316,2326
316,2327
316,2328
316,2329
316,2330
316,2331
316,2332
316,2333
315,2334
315,2335
315,2336
315,2337
315,2338
315,2339
315,2340
315,2341
315,2342
315,2343
315,2344
316,2345
316,2347
316,2348
316,2349
316,2350
316,2351
316,2352
316,2353
316,2354
316,2355
315,2356
316,2356
316,2357
315,2358
315,2359
316,2360
315,2361
316,2362
316,2363
316,2364
316,2365
316,2366
316,2367
316,2368
316,2369
316,2370
316,2371
315,2372
315,2373
315,2374
315,2375
315,2376
315,2377
315,2378
315,2379
315,2380
315,2381
315,2382
315,2383
315,2384
315,2385
315,2386
315,2387
315,2388
315,2390
315,2391
315,2392
315,2393
315,2394
315,2395
315,2396
315,2397
315,2398
315,2399
315,2400
315,2401
315,2402
315,2403
315,2404
315,2405
314,2406
315,2407
314,2407
314,2408
314,2409
314,2410
314,2411
314,2412
314,2413
314,2414
314,2415
314,2416
314,2417
314,2418
314,2419
314,2420
314,2421
315,2422
315,2423
315,2424
315,2425
315,2426
315,2427
315,2428
315,2429
315,2430
315,2432
315,2433
315,2434
315,2435
315,2436
315,2437
315,2438
315,2439
315,2440
315,2441
315,2442
315,2443
315,2444
315,2445
315,2446
315,2447
315,2448
315,2449
315,2450
315,2451
315,2452
315,2453
315,2454
315,2455
315,2456
315,2457
315,2458
315,2459
315,2459
315,2460
315,2461
315,2462
315,2463
315,2464
315,2465
315,2466
315,2467
315,2468
315,2469
315,2470
315,2471
315,2472
315,2473
315,2475
315,2476
315,2477
314,2478
314,2479
314,2480
315,2481
315,2482
315,2483
315,2484
315,2485
315,2486
315,2487
315,2488
315,2489
315,2490
315,2491
315,2492
315,2493
315,2494
314,2495
314,2496
314,2497
314,2498
314,2499
314,2500
314,2501
314,2502
314,2503
314,2504
314,2505
315,2506
315,2507
315,2508
315,2509
315,2510
315,2510
315,2511
315,2512
315,2513
314,2514
314,2515
314,2516
314,2518
314,2519
314,2520
314,2521
314,2522
314,2523
314,2524
314,2525
314,2526
314,2527
314,2528
314,2529
314,2530
314,2531
314,2532
314,2533
314,2534
314,2535
314,2536
314,2537
314,2538
314,2539
314,2540
314,2541
314,2542
314,2543
315,2544
315,2545
314,2546
315,2547
315,2548
315,2549
315,2550
315,2551
315,2552
315,2553
315,2554
314,2555
315,2556
315,2557
314,2558
314,2560
314,2561
314,2562
314,2563
314,2563
314,2564
314,2565
314,2566
314,2567
314,2568
314,2569
314,2570
314,2571
314,2572
314,2573
314,2574
314,2575
314,2576
314,2577
314,2578
314,2579
314,2580
314,2581
313,2582
313,2583
313,2584
314,2585
314,2586
314,2587
314,2588
314,2589
314,2590
314,2591
314,2592
314,2593
314,2594
313,2595
313,2596
313,2597
313,2598
313,2599
313,2600
313,2601
313,2603
313,2604
313,2605
313,2606
313,2607
313,2608
313,2609
313,2610
313,2611
313,2612
313,2613
313,2614
313,2614
313,2615
313,2616
313,2617
313,2618
313,2619
314,2620
313,2621
314,2622
314,2623
314,2624
314,2625
314,2626
314,2627
314,2628
314,2629
314,2630
314,2631
314,2632
314,2633
314,2634
313,2635
313,2636
313,2637
313,2638
313,2639
313,2640
313,2641
313,2642
314,2643
314,2644
314,2646
314,2647
314,2648
314,2649
314,2650
314,2651
314,2652
314,2653
314,2654
314,2655
313,2656
314,2657
313,2658
313,2659
313,2660
314,2661
313,2662
313,2663
313,2664
314,2665
314,2666
314,2666
313,2667
314,2668
314,2669
314,2670
314,2671
313,2672
313,2673
313,2674
313,2675
313,2676
313,2677
313,2678
313,2679
313,2680
313,2681
313,2682
313,2683
313,2684
313,2685
313,2686
313,2688
313,2689
313,2690
313,2691
313,2692
313,2693
313,2694
313,2695
313,2696
313,2697
313,2698
313,2699
313,2700
313,2701
313,2702
313,2703
313,2704
313,2705
313,2706
313,2707
314,2708
313,2709
313,2710
313,2711
314,2712
313,2713
313,2714
313,2715
313,2716
313,2717
313,2717
313,2718
313,2719
313,2720
313,2721
313,2722
313,2723
313,2724
313,2725
313,2726
313,2727
313,2728
313,2729
313,2731
312,2732
313,2733
313,2734
313,2735
312,2736
313,2737
313,2738
313,2739
313,2740
313,2741
313,2742
313,2743
313,2744
313,2745
313,2746
314,2747
314,2748
314,2749
314,2750
314,2751
314,2752
314,2753
313,2754
313,2755
313,2756
313,2757
313,2758
313,2759
313,2760
313,2761
313,2762
313,2763
313,2764
313,2765
314,2766
314,2767
314,2768
314,2769
313,2769
314,2770
313,2771
313,2772
313,2774
313,2775
313,2776
313,2777
313,2778
313,2779
313,2780
313,2781
313,2782
313,2783
313,2784
313,2785
313,2786
313,2787
313,2788
313,2789
313,2790
313,2791
313,2792
313,2793
313,2794
313,2795
313,2796
313,2797
313,2798
313,2799
312,2800
312,2801
313,2802
312,2803
312,2804
313,2805
313,2806
313,2807
313,2808
313,2809
313,2810
313,2811
313,2812
313,2813
312,2814
313,2816
313,2817
313,2818
313,2819
313,2820
313,2821
313,2821
313,2822
313,2823
313,2824
313,2825
313,2826
313,2827
313,2828
313,2829
313,2830
313,2831
313,2832
313,2833
313,2834
313,2835
313,2836
313,2837
313,2838
313,2839
312,2840
312,2841
312,2842
312,2843
312,2844
313,2845
313,2846
313,2847
313,2848
313,2849
313,2850
313,2851
313,2852
313,2853
313,2854
313,2855
313,2856
313,2857
313,2859
313,2860
313,2861
313,2862
313,2863
313,2864
313,2865
313,2866
313,2867
313,2868
313,2869
313,2870
313,2871
313,2872
313,2873
313,2873
313,2874
313,2875
313,2876
313,2877
312,2878
312,2879
313,2880
313,2881
313,2882
313,2883
313,2884
313,2885
313,2886
313,2887
313,2888
314,2889
314,2890
314,2891
314,2892
314,2893
313,2894
313,2895
313,2896
313,2897
314,2898
314,2899
313,2900
314,2902
314,2903
314,2904
314,2905
314,2906
314,2907
314,2908
314,2909
314,2910
314,2911
314,2912
314,2913
314,2914
314,2915
314,2916
314,2917
313,2918
313,2919
313,2920
313,2921
313,2922
313,2923
313,2924
313,2924
313,2925
314,2926
314,2927
314,2928
314,2929
314,2930
314,2931
314,2932
314,2933
314,2934
314,2935
314,2936
314,2937
314,2938
314,2939
314,2940
314,2941
314,2942
314,2944
314,2945
314,2946
314,2947
314,2948
314,2949
314,2950
314,2951
314,2952
313,2953
313,2954
313,2955
313,2956
313,2957
313,2958
313,2959
313,2960
313,2961
313,2962
313,2963
313,2964
313,2965
313,2966
313,2967
313,2968
313,2969
313,2970
313,2971
313,2972
313,2973
313,2974
313,2975
313,2975
313,2976
313,2977
313,2978
313,2979
313,2980
313,2981
313,2982
313,2983
313,2984
313,2985
313,2987
313,2988
313,2989
313,2990
313,2991
313,2992
313,2993
313,2994
313,2995
313,2996
313,2997
313,2998
313,2999
313,3000
313,3001
313,3002
314,3003
314,3004
314,3005
314,3006
314,3007
314,3008
314,3009
314,3010
314,3011
314,3012
314,3013
314,3014
314,3015
314,3016
314,3017
314,3018
314,3019
314,3020
314,3021
314,3022
314,3023
314,3024
315,3025
315,3026
315,3026
315,3027
315,3028
315,3030
315,3031
315,3032
315,3033
314,3034
314,3035
314,3036
314,3037
314,3038
314,3039
314,3040
314,3041
314,3042
314,3043
314,3044
314,3045
314,3046
315,3047
314,3048
315,3049
315,3050
315,3051
315,3052
315,3053
314,3054
315,3055
315,3056
315,3057
315,3058
315,3059
314,3060
314,3061
314,3062
314,3063
315,3064
315,3065
315,3066
315,3067
315,3068
315,3069
316,3070
315,3072
315,3073
315,3074
315,3075
315,3076
315,3077
315,3078
315,3079
315,3079
315,3080
315,3081
315,3082
315,3083
315,3084
315,3085
315,3086
315,3087
315,3088
315,3089
315,3090
315,3091
315,3092
314,3093
314,3094
314,3095
314,3096
314,3097
314,3098
314,3099
314,3100
314,3101
314,3102
314,3103
314,3104
314,3105
314,3106
314,3107
314,3108
314,3109
314,3110
314,3111
314,3112
314,3113
314,3115
313,3116
313,3117
314,3118
313,3119
313,3120
313,3121
313,3122
313,3123
313,3124
313,3125
314,3126
314,3127
314,3128
314,3129
314,3130
313,3130
313,3131
313,3132
313,3133
313,3134
313,3135
313,3136
313,3137
313,3138
313,3139
313,3140
313,3141
313,3142
313,3143
313,3144
313,3145
313,3146
313,3147
313,3148
313,3149
313,3150
313,3151
313,3152
313,3153
313,3154
313,3155
312,3156
312,3158
312,3159
312,3160
312,3161
312,3162
312,3163
312,3164
312,3165
312,3166
312,3167
312,3168
312,3169
311,3170
311,3171
311,3172
312,3173
312,3174
312,3175
312,3176
312,3177
312,3178
312,3179
312,3180
312,3181
312,3181
312,3182
312,3183
312,3184
313,3185
312,3186
312,3187
313,3188
313,3189
312,3190
313,3191
313,3192
312,3193
312,3194
312,3195
312,3196
312,3197
312,3198
312,3200
312,3201
312,3202
312,3203
313,3204
312,3205
312,3206
313,3207
313,3208
313,3209
313,3210
313,3211
313,3212
313,3213
313,3214
313,3215
313,3216
313,3217
313,3218
314,3219
314,3220
313,3221
314,3222
314,3223
314,3224
313,3225
314,3226
313,3227
313,3228
313,3229
313,3230
313,3231
313,3232
313,3233
313,3233
313,3234
313,3235
313,3236
313,3237
313,3238
313,3239
313,3240
313,3241
313,3243
313,3244
313,3245
314,3246
314,3247
314,3248
314,3249
314,3250
314,3251
314,3252
314,3253
314,3254
314,3255
314,3256
314,3257
314,3258
314,3259
314,3260
314,3261
314,3262
314,3263
314,3264
314,3265
314,3266
314,3267
314,3268
314,3269
314,3270
315,3271
315,3272
315,3273
314,3274
315,3275
315,3276
314,3277
315,3278
315,3279
314,3280
314,3281
315,3282
315,3283
315,3284
315,3284
315,3286
315,3287
315,3288
315,3289
315,3290
314,3291
315,3292
314,3293
314,3294
314,3295
314,3296
314,3297
314,3298
314,3299
314,3300
314,3301
314,3302
313,3303
313,3304
313,3305
313,3306
314,3307
314,3308
313,3309
313,3310
314,3311
313,3312
313,3313
314,3314
314,3315
314,3316
314,3317
314,3318
314,3319
314,3320
314,3321
314,3322
314,3323
314,3324
314,3325
314,3326
314,3328
314,3329
314,3330
314,3331
314,3332
314,3333
314,3334
314,3335
314,3336
314,3337
314,3337
314,3338
314,3339
314,3340
314,3341
314,3342
313,3343
314,3344
314,3345
314,3346
314,3347
314,3348
314,3349
313,3350
313,3351
313,3352
313,3353
313,3354
313,3355
313,3356
314,3357
314,3358
314,3359
314,3360
314,3361
314,3362
314,3363
314,3364
314,3365
314,3366
314,3367
314,3368
313,3369
313,3371
313,3372
313,3373
313,3374
313,3375
313,3376
312,3377
312,3378
312,3379
312,3380
312,3381
312,3382
312,3383
312,3384
312,3385
312,3386
313,3387
312,3388
312,3388
313,3389
313,3390
312,3391
313,3392
312,3393
313,3394
313,3395
313,3396
313,3397
313,3398
313,3399
313,3400
312,3401
313,3402
313,3403
313,3404
313,3405
313,3406
313,3407
313,3408
313,3409
313,3410
313,3411
313,3412
313,3414
313,3415
313,3416
313,3417
313,3418
313,3419
312,3420
313,3421
312,3422
313,3423
313,3424
312,3425
313,3426
313,3427
313,3428
313,3429
313,3430
314,3431
314,3432
314,3433
314,3434
314,3435
314,3436
314,3437
314,3438
314,3439
314,3440
314,3440
314,3441
314,3442
314,3443
314,3444
315,3445
315,3446
315,3447
315,3448
315,3449
315,3450
315,3451
315,3452
315,3453
315,3454
315,3456
315,3457
315,3458
315,3459
315,3460
315,3461
315,3462
315,3463
315,3464
315,3465
315,3466
315,3467
315,3468
315,3469
315,3470
315,3471
315,3472
314,3473
315,3474
314,3475
314,3476
314,3477
314,3478
314,3479
314,3480
314,3481
314,3482
314,3483
314,3484
314,3485
314,3486
314,3487
314,3488
314,3489
314,3490
314,3491
314,3491
314,3492
314,3493
314,3494
314,3495
314,3496
314,3497
315,3499
314,3500
314,3501
315,3502
315,3503
315,3504
315,3505
315,3506
315,3507
315,3508
315,3509
315,3510
315,3511
315,3512
315,3513
315,3514
315,3515
314,3516
315,3517
314,3518
314,3519
314,3520
314,3521
315,3522
315,3523
315,3524
315,3525
315,3526
315,3527
315,3528
314,3529
314,3530
314,3531
314,3532
314,3533
314,3534
314,3535
314,3536
314,3537
314,3538
314,3539
314,3540
314,3542
314,3543
314,3543
314,3544
314,3545
314,3546
314,3547
314,3548
314,3549
314,3550
314,3551
314,3552
314,3553
314,3554
314,3555
314,3556
314,3557
314,3558
314,3559
314,3560
314,3561
314,3562
314,3563
314,3564
314,3565
314,3566
314,3567
314,3568
314,3569
314,3570
314,3571
314,3572
314,3573
313,3574
313,3575
313,3576
313,3577
313,3578
313,3579
313,3580
314,3581
314,3582
314,3584
314,3585
314,3586
315,3587
315,3588
315,3589
315,3590
315,3591
315,3592
315,3593
315,3594
315,3595
314,3595
314,3596
314,3597
314,3598
314,3599
314,3600
314,3601
314,3602
314,3603
314,3604
314,3605
314,3606
314,3607
314,3608
314,3609
314,3610
314,3611
315,3612
315,3613
314,3614
315,3615
315,3616
315,3617
315,3618
315,3619
315,3620
315,3621
314,3622
314,3623
315,3624
314,3625
314,3627
314,3628
314,3629
314,3630
314,3631
314,3632
314,3633
313,3634
313,3635
313,3636
313,3637
313,3638
314,3639
314,3640
314,3641
314,3642
314,3643
314,3644
314,3645
315,3646
315,3646
315,3647
315,3648
315,3649
315,3650
315,3651
315,3652
316,3653
315,3654
315,3655
315,3656
315,3657
315,3658
314,3659
314,3660
314,3661
314,3662
314,3663
314,3664
314,3665
314,3666
314,3667
314,3668
314,3670
314,3671
314,3672
314,3673
314,3674
314,3675
314,3676
314,3677
314,3678
314,3679
314,3680
314,3681
314,3682
314,3683
314,3684
314,3685
314,3686
314,3687
314,3688
314,3689
314,3690
314,3691
314,3692
314,3693
314,3694
314,3695
314,3696
313,3697
313,3698
313,3698
313,3699
313,3700
313,3701
312,3702
313,3703
313,3704
313,3705
313,3706
313,3707
313,3708
314,3709
313,3710
313,3712
313,3713
313,3714
312,3715
312,3716
312,3717
312,3718
312,3719
312,3720
312,3721
312,3722
312,3723
312,3724
312,3725
312,3726
312,3727
312,3728
312,3729
312,3730
312,3731
312,3732
312,3733
312,3734
312,3735
312,3736
312,3737
312,3738
312,3739
312,3740
312,3741
313,3742
313,3743
313,3744
313,3745
313,3746
313,3747
313,3748
313,3749
314,3749
314,3750
314,3751
313,3752
314,3753
314,3755
314,3756
313,3757
313,3758
313,3759
314,3760
313,3761
313,3762
313,3763
313,3764
313,3765
313,3766
313,3767
312,3768
312,3769
312,3770
312,3771
313,3772
312,3773
312,3774
312,3775
312,3776
312,3777
312,3778
312,3779
312,3780
312,3781
312,3782
312,3783
312,3784
312,3785
312,3786
312,3787
312,3788
312,3789
312,3790
312,3791
313,3792
313,3793
312,3794
312,3795
312,3796
312,3798
313,3799
312,3800
313,3801
313,3802
313,3802
313,3803
313,3804
313,3805
313,3806
313,3807
313,3808
313,3809
313,3810
313,3811
313,3812
312,3813
312,3814
312,3815
312,3816
312,3817
312,3818
312,3819
312,3820
312,3821
312,3822
312,3823
312,3824
312,3825
312,3826
312,3827
311,3828
311,3829
311,3830
311,3831
311,3832
311,3833
311,3834
311,3835
311,3836
311,3837
311,3838
311,3840
311,3841
311,3842
311,3843
311,3844
311,3845
311,3846
311,3847
311,3848
311,3849
311,3850
311,3851
311,3852
311,3853
311,3853
311,3854
311,3855
311,3856
311,3857
311,3858
311,3859
311,3860
311,3861
311,3862
311,3863
311,3864
312,3865
312,3866
312,3867
312,3868
312,3869
312,3870
312,3871
313,3872
313,3873
313,3874
313,3875
312,3876
312,3877
313,3878
312,3879
312,3880
312,3881
312,3883
312,3884
312,3885
312,3886
312,3887
312,3888
313,3889
313,3890
313,3891
313,3892
314,3893
314,3894
314,3895
314,3896
314,3897
314,3898
314,3899
314,3900
314,3901
314,3902
314,3903
314,3904
314,3905
315,3905
315,3906
315,3907
315,3908
315,3909
315,3910
315,3911
315,3912
315,3913
315,3914
315,3915
315,3916
315,3917
315,3918
315,3919
315,3920
315,3921
315,3922
315,3923
315,3924
315,3926
315,3927
315,3928
315,3929
315,3930
315,3931
315,3932
315,3933
315,3934
314,3935
315,3936
315,3937
315,3938
315,3939
316,3940
316,3941
316,3942
316,3943
316,3944
316,3945
316,3946
317,3947
317,3948
317,3949
317,3950
317,3951
317,3952
317,3953
317,3954
317,3955
317,3956
317,3956
317,3957
317,3958
317,3959
317,3960
317,3961
317,3962
316,3963
317,3964
316,3965
316,3966
316,3968
316,3969
316,3970
316,3971
316,3972
316,3973
316,3974
316,3975
316,3976
316,3977
316,3978
316,3979
316,3980
316,3981
316,3982
316,3983
316,3984
317,3985
317,3986
317,3987
317,3988
317,3989
317,3990
318,3991
318,3992
318,3993
318,3994
318,3995
318,3996
318,3997
318,3998
318,3999
318,4000
318,4001
318,4002
318,4003
317,4004
317,4005
317,4006
317,4007
317,4007
317,4008
317,4009
317,4011
317,4012
317,4013
316,4014
316,4015
316,4016
316,4017
316,4018
316,4019
316,4020
316,4021
316,4022
317,4023
317,4024
317,4025
317,4026
317,4027
317,4028
317,4029
317,4030
317,4031
318,4032
318,4033
318,4034
318,4035
317,4036
317,4037
317,4038
317,4039
317,4040
317,4041
317,4042
318,4043
318,4044
318,4045
318,4046
318,4047
318,4048
318,4049
318,4050
318,4051
317,4052
318,4054
318,4055
317,4056
317,4057
317,4058
317,4059
317,4060
317,4060
317,4061
317,4062
317,4063
318,4064
318,4065
318,4066
319,4067
319,4068
319,4069
319,4070
319,4071
319,4072
319,4073
319,4074
318,4075
318,4076
318,4077
318,4078
318,4079
317,4080
317,4081
317,4082
317,4083
317,4084
317,4085
317,4086
317,4087
317,4088
317,4089
317,4090
317,4091
317,4092
317,4093
316,4094
316,4096
316,4097
316,4098
316,4099
315,4100
315,4101
315,4102
315,4103
315,4104
315,4105
315,4106
315,4107
316,4108
316,4109
316,4110
316,4111
316,4111
316,4112
316,4113
316,4114
316,4115
316,4116
316,4117
316,4118
316,4119
316,4120
316,4121
316,4122
316,4123
316,4124
316,4125
316,4126
316,4127
316,4128
316,4129
316,4130
316,4131
316,4132
316,4133
316,4134
316,4135
317,4136
317,4137
317,4139
317,4140
317,4141
317,4142
317,4143
317,4144
317,4145
316,4146
316,4147
316,4148
316,4149
316,4150
316,4151
316,4152
316,4153
316,4154
316,4155
316,4156
315,4157
316,4158
316,4159
316,4160
316,4161
316,4162
316,4163
316,4163
315,4164
315,4165
315,4166
315,4167
315,4168
315,4169
315,4170
316,4171
315,4172
316,4173
316,4174
315,4175
316,4176
315,4177
316,4178
316,4179
316,4180
316,4182
316,4183
316,4184
316,4185
316,4186
316,4187
317,4188
317,4189
317,4190
317,4191
317,4192
317,4193
317,4194
317,4195
317,4196
317,4197
317,4198
316,4199
316,4200
316,4201
316,4202
316,4203
316,4204
316,4205
316,4206
316,4207
317,4208
317,4209
317,4210
316,4211
316,4212
316,4213
315,4214
315,4214
315,4215
315,4216
315,4217
315,4218
315,4219
316,4220
316,4221
316,4222
316,4224
316,4225
316,4226
316,4227
316,4228
316,4229
315,4230
315,4231
315,4232
315,4233
315,4234
315,4235
315,4236
315,4237
314,4238
314,4239
314,4240
314,4241
314,4242
314,4243
314,4244
314,4245
314,4246
314,4247
314,4248
314,4249
314,4250
314,4251
314,4252
314,4253
314,4254
314,4255
314,4256
314,4257
315,4258
315,4259
314,4260
314,4261
314,4262
314,4263
314,4264
314,4265
314,4267
314,4267
314,4268
314,4269
314,4270
314,4271
314,4272
314,4273
314,4274
315,4275
315,4276
315,4277
315,4278
315,4279
315,4280
315,4281
315,4282
315,4283
315,4284
315,4285
314,4286
314,4287
314,4288
314,4289
314,4290
314,4291
314,4292
314,4293
314,4294
314,4295
314,4296
314,4297
314,4298
314,4299
314,4300
314,4301
314,4302
314,4303
314,4304
314,4305
313,4306
313,4307
313,4308
314,4310
313,4311
313,4312
313,4313
313,4314
313,4315
313,4316
314,4317
314,4318
314,4318
314,4319
314,4320
314,4321
314,4322
314,4323
314,4324
314,4325
314,4326
313,4327
313,4328
314,4329
314,4330
314,4331
314,4332
314,4333
314,4334
313,4335
313,4336
313,4337
313,4338
313,4339
313,4340
313,4341
313,4342
314,4343
313,4344
314,4345
314,4346
314,4347
314,4348
314,4349
314,4350
314,4352
314,4353
314,4354
313,4355
313,4356
313,4357
313,4358
313,4359
313,4360
313,4361
313,4362
312,4363
312,4364
312,4365
312,4366
313,4367
313,4368
313,4369
313,4369
313,4370
313,4371
312,4372
312,4373
312,4374
312,4375
312,4376
312,4377
312,4378
312,4379
312,4380
312,4381
312,4382
312,4383
312,4384
312,4385
312,4386
312,4387
312,4388
312,4389
312,4390
311,4391
311,4392
311,4393
311,4395
312,4396
312,4397
312,4398
312,4399
312,4400
312,4401
312,4402
312,4403
312,4404
312,4405
312,4406
312,4407
312,4408
312,4409
312,4410
312,4411
312,4412
312,4413
312,4414
312,4415
312,4416
312,4417
312,4418
312,4419
312,4420
312,4421
312,4421
312,4422
312,4423
312,4424
312,4425
312,4426
313,4427
312,4428
313,4429
313,4430
313,4431
313,4432
312,4433
312,4434
312,4435
312,4436
312,4438
312,4439
312,4440
312,4441
312,4442
312,4443
312,4444
313,4445
313,4446
313,4447
312,4448
312,4449
312,4450
312,4451
312,4452
312,4453
312,4454
312,4455
312,4456
312,4457
312,4458
312,4459
312,4460
312,4461
312,4462
312,4463
312,4464
312,4465
312,4466
312,4467
312,4468
312,4469
312,4470
312,4471
313,4472
313,4472
313,4473
313,4474
312,4475
312,4476
312,4477
312,4478
312,4480
312,4481
312,4482
312,4483
312,4484
312,4485
312,4486
313,4487
313,4488
313,4489
314,4490
314,4491
314,4492
314,4493
315,4494
315,4495
315,4496
315,4497
315,4498
315,4499
314,4500
314,4501
314,4502
314,4503
314,4504
314,4505
314,4506
314,4507
314,4508
314,4509
314,4510
314,4511
314,4512
314,4513
314,4514
314,4515
314,4516
315,4517
315,4518
315,4519
315,4520
315,4521
315,4523
314,4524
315,4525
315,4525
315,4526
315,4527
314,4528
314,4529
314,4530
314,4531
314,4532
314,4533
314,4534
314,4535
314,4536
313,4537
314,4538
313,4539
313,4540
313,4541
313,4542
314,4543
313,4544
314,4545
314,4546
314,4547
314,4548
314,4549
314,4550
314,4551
314,4552
314,4553
314,4554
314,4555
314,4556
314,4557
314,4558
314,4559
314,4560
314,4561
314,4562
315,4563
314,4564
314,4566
314,4567
315,4568
315,4569
315,4570
315,4571
315,4572
315,4573
315,4574
315,4575
315,4576
315,4576
315,4577
315,4578
315,4579
315,4580
315,4581
315,4582
315,4583
315,4584
315,4585
315,4586
315,4587
315,4588
315,4589
315,4590
315,4591
315,4592
315,4593
315,4594
315,4595
315,4596
314,4597
314,4598
314,4599
314,4600
314,4601
314,4602
314,4603
314,4604
314,4605
314,4606
314,4608
314,4609
314,4610
314,4611
314,4612
314,4613
314,4614
314,4615
314,4616
314,4617
314,4618
313,4619
313,4620
313,4621
314,4622
314,4623
314,4624
314,4625
314,4626
314,4627
314,4627
314,4628
314,4629
314,4630
315,4631
314,4632
314,4633
315,4634
315,4635
314,4636
314,4637
314,4638
314,4639
314,4640
314,4641
314,4642
314,4643
315,4644
315,4645
315,4646
315,4647
316,4648
316,4649
316,4651
317,4652
316,4653
317,4654
316,4655
316,4656
316,4657
316,4658
315,4659
315,4660
315,4661
315,4662
314,4663
314,4664
314,4665
314,4666
314,4667
314,4668
314,4669
314,4670
314,4671
314,4672
314,4673
314,4674
314,4675
314,4676
314,4677
314,4678
314,4679
314,4679
314,4680
314,4681
314,4682
314,4683
314,4684
314,4685
314,4686
314,4687
314,4688
314,4689
314,4690
314,4691
315,4692
315,4694
315,4695
315,4696
315,4697
315,4698
315,4699
315,4700
315,4701
315,4702
315,4703
315,4704
315,4705
315,4706
315,4707
315,4708
315,4709
315,4710
315,4711
315,4712
315,4713
315,4714
315,4715
315,4716
315,4717
316,4718
316,4719
316,4720
316,4721
317,4722
317,4723
317,4724
317,4725
317,4726
317,4727
317,4728
317,4729
317,4730
317,4730
317,4731
317,4732
317,4733
317,4734
317,4736
317,4737
317,4738
316,4739
316,4740
316,4741
316,4742
316,4743
316,4744
316,4745
316,4746
316,4747
316,4748
316,4749
316,4750
316,4751
316,4752
316,4753
316,4754
316,4755
316,4756
316,4757
316,4758
316,4759
316,4760
315,4761
316,4762
316,4763
315,4764
316,4765
316,4766
316,4767
316,4768
316,4769
316,4770
316,4771
316,4772
316,4773
316,4774
316,4775
316,4776
316,4777
316,4779
315,4780
316,4781
315,4782
315,4782
315,4783
315,4784
315,4785
315,4786
315,4787
316,4788
316,4789
316,4790
316,4791
316,4792
317,4793
316,4794
316,4795
316,4796
317,4797
316,4798
316,4799
316,4800
316,4801
316,4802
316,4803
316,4804
316,4805
316,4806
316,4807
315,4808
316,4809
316,4810
315,4811
315,4812
315,4813
315,4814
315,4815
315,4816
315,4817
314,4818
314,4819
314,4820
314,4822
314,4823
314,4824
314,4825
314,4826
314,4827
314,4828
314,4829
314,4830
314,4831
314,4832
313,4833
313,4834
313,4834
313,4835
313,4836
312,4837
312,4838
312,4839
312,4840
312,4841
312,4842
312,4843
312,4844
312,4845
312,4846
312,4847
312,4848
312,4849
312,4850
312,4851
312,4852
312,4853
312,4854
312,4855
312,4856
312,4857
312,4858
312,4859
312,4860
311,4861
311,4862
311,4864
311,4865
312,4866
312,4867
312,4868
312,4869
312,4870
312,4871
312,4872
312,4873
312,4874
312,4875
312,4876
312,4877
312,4878
312,4879
312,4880
312,4881
312,4882
312,4883
312,4884
312,4885
312,4885
312,4886
312,4887
312,4888
312,4889
312,4890
312,4891
312,4892
312,4893
311,4894
311,4895
311,4896
311,4897
311,4898
311,4899
311,4900
312,4901
312,4902
311,4903
312,4904
312,4905
312,4907
312,4908
312,4909
312,4910
312,4911
312,4912
312,4913
312,4914
312,4915
312,4916
312,4917
313,4918
312,4919
312,4920
312,4921
312,4922
312,4923
312,4924
312,4925
312,4926
312,4927
312,4928
312,4929
312,4930
312,4931
312,4932
312,4933
312,4934
312,4935
312,4936
312,4937
312,4937
312,4938
312,4939
312,4940
312,4941
312,4942
313,4943
313,4944
312,4945
313,4946
313,4947
313,4948
312,4950
313,4951
312,4952
313,4953
312,4954
313,4955
312,4956
312,4957
313,4958
312,4959
313,4960
313,4961
313,4962
313,4963
313,4964
313,4965
314,4966
314,4967
314,4968
314,4969
314,4970
314,4971
314,4972
314,4973
314,4974
314,4975
314,4976
314,4977
314,4978
313,4979
314,4980
314,4981
313,4982
313,4983
313,4984
313,4985
313,4986
313,4987
313,4988
313,4988
312,4989
313,4990
313,4992
313,4993
313,4994
313,4995
313,4996
313,4997
313,4998
313,4999
313,5000
313,5001
313,5002
313,5003
313,5004
313,5005
313,5006
313,5007
313,5008
313,5009
313,5010
313,5011
313,5012
313,5013
313,5014
313,5015
313,5016
313,5017
313,5018
313,5019
313,5020
313,5021
313,5022
313,5023
313,5024
313,5025
313,5026
313,5027
313,5028
313,5029
313,5030
313,5031
313,5032
313,5033
313,5035
313,5036
314,5037
314,5038
314,5039
314,5040
314,5040
314,5041
314,5042
314,5043
314,5044
314,5045
314,5046
314,5047
314,5048
314,5049
315,5050
315,5051
314,5052
314,5053
314,5054
314,5055
314,5056
313,5057
313,5058
313,5059
313,5060
313,5061
313,5062
313,5063
313,5064
313,5065
313,5066
313,5067
313,5068
312,5069
312,5070
312,5071
312,5072
313,5073
312,5074
312,5075
313,5076
313,5078
312,5079
312,5080
312,5081
312,5082
312,5083
312,5084
312,5085
313,5086
313,5087
313,5088
313,5089
313,5090
314,5091
314,5091
314,5092
313,5093
313,5094
313,5095
313,5096
313,5097
313,5098
313,5099
313,5100
313,5101
313,5102
313,5103
313,5104
313,5105
314,5106
314,5107
314,5108
314,5109
315,5110
315,5111
315,5112
315,5113
315,5114
315,5115
314,5116
314,5117
314,5118
314,5120
314,5121
314,5122
314,5123
314,5124
314,5125
313,5126
313,5127
313,5128
313,5129
314,5130
314,5131
314,5132
314,5133
314,5134
314,5135
314,5136
314,5137
314,5138
314,5139
314,5140
314,5141
314,5142
314,5143
314,5144
314,5144
314,5145
314,5146
314,5147
314,5148
314,5149
314,5150
314,5151
314,5152
314,5153
314,5154
314,5155
314,5156
314,5157
314,5158
314,5159
314,5160
313,5161
314,5163
314,5164
314,5165
314,5166
314,5167
315,5168
315,5169
315,5170
315,5171
315,5172
315,5173
314,5174
314,5175
314,5176
314,5177
314,5178
314,5179
313,5180
313,5181
313,5182
313,5183
313,5184
313,5185
313,5186
313,5187
313,5188
313,5189
313,5190
313,5191
313,5192
313,5193
313,5194
313,5195
313,5195
313,5196
313,5197
313,5198
313,5199
313,5200
313,5201
313,5202
313,5203
313,5204
313,5206
313,5207
313,5208
313,5209
313,5210
313,5211
313,5212
313,5213
313,5214
313,5215
313,5216
313,5217
313,5218
313,5219
313,5220
314,5221
313,5222
313,5223
314,5224
314,5225
314,5226
314,5227
314,5228
314,5229
314,5230
314,5231
314,5232
315,5233
315,5234
315,5235
315,5236
315,5237
315,5238
315,5239
315,5240
315,5241
315,5242
315,5243
315,5244
315,5245
315,5246
315,5248
315,5248
314,5249
314,5250
314,5251
314,5252
314,5253
314,5254
314,5255
314,5256
314,5257
313,5258
314,5259
313,5260
314,5261
313,5262
313,5263
313,5264
313,5265
313,5266
313,5267
313,5268
313,5269
313,5270
313,5271
313,5272
313,5273
313,5274
313,5275
313,5276
313,5277
313,5278
313,5279
313,5280
313,5281
313,5282
313,5283
313,5284
313,5285
313,5286
313,5287
313,5288
313,5289
313,5291
313,5292
313,5293
313,5294
313,5295
313,5296
313,5297
313,5298
313,5299
313,5299
313,5300
313,5301
313,5302
314,5303
314,5304
314,5305
314,5306
314,5307
314,5308
314,5309
314,5310
314,5311
315,5312
315,5313
315,5314
315,5315
315,5316
315,5317
315,5318
315,5319
315,5320
315,5321
314,5322
314,5323
315,5324
314,5325
314,5326
315,5327
315,5328
315,5329
315,5330
315,5331
315,5332
315,5334
315,5335
315,5336
315,5337
315,5338
315,5339
315,5340
315,5341
314,5342
314,5343
314,5344
314,5345
314,5346
314,5347
315,5348
314,5349
314,5350
314,5350
313,5351
314,5352
313,5353
313,5354
313,5355
313,5356
313,5357
313,5358
314,5359
314,5360
314,5361
314,5362
314,5363
314,5364
314,5365
314,5366
314,5367
314,5368
314,5369
314,5370
314,5371
314,5372
314,5373
314,5374
314,5376
315,5377
314,5378
314,5379
315,5380
314,5381
314,5382
314,5383
314,5384
314,5385
314,5386
314,5387
314,5388
314,5389
314,5390
314,5391
314,5392
314,5393
314,5394
315,5395
315,5396
315,5397
315,5398
315,5399
314,5400
315,5401
315,5402
314,5402
314,5403
314,5404
314,5405
314,5406
314,5407
314,5408
315,5409
315,5410
315,5411
315,5412
315,5413
315,5414
315,5415
315,5416
315,5417
315,5419
315,5420
315,5421
315,5422
314,5423
314,5424
314,5425
314,5426
314,5427
314,5428
314,5429
314,5430
314,5431
314,5432
314,5433
315,5434
314,5435
314,5436
314,5437
314,5438
314,5439
314,5440
314,5441
314,5442
314,5443
314,5444
313,5445
313,5446
312,5447
312,5448
312,5449
313,5450
313,5451
314,5452
314,5453
314,5453
314,5454
314,5455
315,5456
315,5457
315,5458
315,5459
315,5460
314,5462
314,5463
314,5464
314,5465
314,5466
314,5467
314,5468
313,5469
314,5470
314,5471
314,5472
314,5473
314,5474
314,5475
314,5476
314,5477
313,5478
313,5479
313,5480
313,5481
313,5482
313,5483
313,5484
313,5485
313,5486
313,5487
313,5488
313,5489
313,5490
314,5491
314,5492
314,5493
314,5494
314,5495
314,5496
313,5497
314,5498
313,5499
313,5500
314,5501
314,5502
314,5504
314,5505
314,5505
314,5506
314,5507
315,5508
315,5509
316,5510
316,5511
316,5512
316,5513
316,5514
316,5515
316,5516
316,5517
316,5518
315,5519
315,5520
315,5521
315,5522
315,5523
314,5524
314,5525
314,5526
314,5527
314,5528
315,5529
315,5530
315,5531
315,5532
315,5533
315,5534
315,5535
315,5536
314,5537
314,5538
314,5539
314,5540
314,5541
314,5542
313,5543
314,5544
314,5545
314,5547
314,5548
314,5549
314,5550
314,5551
314,5552
314,5553
314,5554
314,5555
314,5556
314,5556
314,5557
314,5558
314,5559
314,5560
314,5561
314,5562
314,5563
314,5564
314,5565
314,5566
314,5567
314,5568
314,5569
314,5570
314,5571
314,5572
314,5573
314,5574
314,5575
314,5576
314,5577
314,5578
314,5579
314,5580
314,5581
314,5582
314,5583
314,5584
314,5585
314,5586
314,5587
314,5588
314,5590
314,5591
315,5592
314,5593
315,5594
314,5595
314,5596
314,5597
314,5598
314,5599
314,5600
314,5601
314,5602
314,5603
314,5604
314,5605
314,5606
314,5607
314,5608
314,5608
314,5609
314,5610
315,5611
315,5612
315,5613
315,5614
315,5615
315,5616
315,5617
315,5618
315,5619
314,5620
314,5621
314,5622
314,5623
314,5624
314,5625
314,5626
314,5627
314,5628
315,5629
315,5630
315,5632
316,5633
316,5634
316,5635
316,5636
316,5637
316,5638
315,5639
315,5640
316,5641
315,5642
315,5643
315,5644
315,5645
315,5646
315,5647
315,5648
315,5649
315,5650
315,5651
315,5652
315,5653
315,5654
315,5655
315,5656
315,5657
315,5658
315,5659
315,5659
315,5660
314,5661
314,5662
314,5663
314,5664
314,5665
314,5666
314,5667
314,5668
314,5669
314,5670
314,5671
314,5672
314,5673
314,5675
314,5676
314,5677
314,5678
314,5679
314,5680
314,5681
314,5682
314,5683
314,5684
314,5685
314,5686
314,5687
314,5688
314,5689
315,5690
315,5691
315,5692
315,5693
315,5694
315,5695
315,5696
315,5697
315,5698
316,5699
316,5700
316,5701
316,5702
316,5703
316,5704
316,5705
317,5706
317,5707
316,5708
316,5709
316,5710
316,5710
315,5711
315,5712
315,5713
315,5714
316,5715
316,5716
316,5718
316,5719
316,5720
315,5721
315,5722
315,5723
315,5724
315,5725
314,5726
314,5727
314,5728
314,5729
314,5730
314,5731
314,5732
314,5733
314,5734
314,5735
314,5736
314,5737
314,5738
314,5739
314,5740
314,5741
314,5742
314,5743
314,5744
314,5745
314,5746
314,5747
315,5748
315,5749
315,5750
315,5751
315,5752
315,5753
315,5754
315,5755
315,5756
315,5757
315,5758
315,5760
315,5761
315,5762
315,5763
315,5763
315,5764
315,5765
316,5766
316,5767
316,5768
316,5769
317,5770
317,5771
317,5772
317,5773
317,5774
317,5775
318,5776
318,5777
318,5778
317,5779
317,5780
317,5781
316,5782
316,5783
316,5784
315,5785
315,5786
315,5787
315,5788
315,5789
315,5790
315,5791
315,5792
315,5793
316,5794
316,5795
316,5796
316,5797
315,5798
315,5799
315,5800
315,5801
315,5803
315,5804
315,5805
315,5806
314,5807
314,5808
314,5809
314,5810
314,5811
314,5812
314,5813
314,5814
315,5814
315,5815
315,5816
315,5817
315,5818
315,5819
315,5820
315,5821
315,5822
315,5823
315,5824
315,5825
315,5826
315,5827
316,5828
316,5829
316,5830
316,5831
316,5832
317,5833
317,5834
317,5835
316,5836
316,5837
316,5838
316,5839
315,5840
315,5841
315,5842
314,5843
315,5844
315,5846
315,5847
316,5848
316,5849
316,5850
316,5851
316,5852
315,5853
315,5854
315,5855
315,5856
315,5857
315,5858
315,5859
315,5860
314,5861
314,5862
314,5863
314,5864
314,5865
314,5866
314,5866
314,5867
314,5868
315,5869
315,5870
315,5871
315,5872
315,5873
314,5874
315,5875
315,5876
314,5877
314,5878
314,5879
314,5880
314,5881
314,5882
314,5883
314,5884
314,5885
314,5886
314,5888
314,5889
314,5890
315,5891
315,5892
315,5893
315,5894
315,5895
315,5896
316,5897
316,5898
316,5899
316,5900
316,5901
316,5902
316,5903
316,5904
315,5905
315,5906
315,5907
315,5908
315,5909
315,5910
315,5911
315,5912
315,5913
315,5914
315,5915
314,5916
314,5917
314,5917
314,5918
314,5919
314,5920
314,5921
314,5922
314,5923
314,5924
314,5925
314,5926
314,5927
314,5928
314,5929
315,5931
315,5932
316,5933
316,5934
316,5935
316,5936
316,5937
316,5938
316,5939
316,5940
316,5941
315,5942
315,5943
315,5944
315,5945
315,5946
315,5947
315,5948
315,5949
315,5950
316,5951
316,5952
316,5953
316,5954
317,5955
317,5956
317,5957
317,5958
316,5959
316,5960
315,5961
315,5962
315,5963
314,5964
314,5965
314,5966
314,5967
314,5968
314,5968
314,5969
314,5970
314,5971
315,5972
314,5974
314,5975
314,5976
313,5977
313,5978
313,5979
314,5980
314,5981
314,5982
314,5983
314,5984
314,5985
314,5986
315,5987
315,5988
315,5989
315,5990
314,5991
314,5992
314,5993
314,5994
314,5995
314,5996
314,5997
313,5998
314,5999
313,6000
313,6001
313,6002
313,6003
313,6004
313,6005
313,6006
314,6007
314,6008
314,6009
314,6010
314,6011
315,6012
315,6013
315,6014
315,6016
314,6017
315,6018
314,6019
314,6020
314,6021
314,6021
314,6022
314,6023
314,6024
314,6025
314,6026
314,6027
314,6028
314,6029
314,6030
314,6031
315,6032
315,6033
315,6034
315,6035
315,6036
315,6037
315,6038
315,6039
315,6040
315,6041
316,6042
316,6043
316,6044
317,6045
317,6046
317,6047
317,6048
317,6049
317,6050
317,6051
317,6052
317,6053
317,6054
316,6055
316,6056
316,6057
316,6059
316,6060
316,6061
316,6062
316,6063
316,6064
316,6065
316,6066
316,6067
316,6068
316,6069
316,6070
316,6071
316,6072
316,6072
316,6073
316,6074
316,6075
315,6076
315,6077
314,6078
313,6079
313,6080
313,6081
313,6082
314,6083
314,6084
315,6085
315,6086
315,6087
315,6088
315,6089
315,6090
315,6091
315,6092
315,6093
315,6094
315,6095
315,6096
314,6097
314,6098
314,6099
314,6100
314,6102
314,6103
314,6104
314,6105
314,6106
314,6107
314,6108
314,6109
314,6110
314,6111
314,6112
314,6113
314,6114
314,6115
315,6116
315,6117
315,6118
315,6119
315,6120
315,6121
315,6122
315,6123
315,6123
315,6124
315,6125
315,6126
315,6127
315,6128
315,6129
315,6130
315,6131
316,6132
316,6133
316,6134
317,6135
317,6136
317,6137
317,6138
316,6139
316,6140
316,6141
316,6142
316,6144
316,6145
315,6146
315,6147
315,6148
315,6149
314,6150
314,6151
314,6152
314,6153
314,6154
314,6155
314,6156
314,6157
313,6158
313,6159
313,6160
313,6161
314,6162
313,6163
313,6164
314,6165
314,6166
314,6167
314,6168
314,6169
314,6170
314,6171
315,6172
315,6173
315,6174
315,6175
315,6175
315,6176
315,6177
315,6178
314,6179
314,6180
313,6181
314,6182
314,6183
313,6184
313,6185
313,6187
313,6188
313,6189
313,6190
313,6191
313,6192
313,6193
313,6194
314,6195
314,6196
314,6197
315,6198
315,6199
315,6200
315,6201
316,6202
316,6203
316,6204
316,6205
316,6206
316,6207
316,6208
316,6209
316,6210
316,6211
317,6212
316,6213
316,6214
317,6215
317,6216
317,6217
317,6218
317,6219
317,6220
317,6221
317,6222
317,6223
317,6224
317,6225
317,6226
317,6226
317,6227
317,6228
317,6230
316,6231
316,6232
315,6233
315,6234
314,6235
314,6236
314,6237
314,6238
314,6239
314,6240
314,6241
314,6242
314,6243
315,6244
315,6245
314,6246
314,6247
314,6248
315,6249
315,6250
314,6251
315,6252
314,6253
314,6254
314,6255
314,6256
314,6257
314,6258
314,6259
314,6260
314,6261
314,6262
314,6263
315,6264
315,6265
315,6266
315,6267
316,6268
316,6269
315,6270
316,6272
316,6273
315,6274
315,6275
316,6276
316,6277
316,6278
315,6278
316,6279
316,6280
316,6281
316,6282
316,6283
316,6284
316,6285
316,6286
317,6287
317,6288
317,6289
317,6290
318,6291
318,6292
318,6293
318,6294
318,6295
318,6296
318,6297
318,6298
318,6299
319,6300
319,6301
319,6302
318,6303
318,6304
317,6305
317,6306
316,6307
316,6308
315,6309
315,6310
315,6311
315,6312
314,6313
314,6315
314,6316
314,6317
314,6318
314,6319
314,6320
314,6321
314,6322
314,6323
314,6324
314,6325
314,6326
315,6327
315,6328
314,6329
314,6330
314,6330
314,6331
314,6332
314,6333
314,6334
314,6335
314,6336
314,6337
314,6338
314,6339
314,6340
313,6341
314,6342
313,6343
314,6344
314,6345
314,6346
315,6347
315,6348
315,6349
315,6350
314,6351
314,6352
314,6353
314,6354
314,6355
314,6356
314,6358
314,6359
314,6360
314,6361
315,6362
315,6363
316,6364
316,6365
317,6366
317,6367
318,6368
318,6369
318,6370
318,6371
318,6372
318,6373
317,6374
317,6375
317,6376
317,6377
316,6378
316,6379
316,6380
316,6381
317,6382
317,6382
318,6383
318,6384
319,6385
319,6386
319,6387
319,6388
318,6389
317,6390
315,6391
314,6392
313,6393
313,6394
313,6395
313,6396
314,6397
314,6398
314,6400
314,6401
314,6402
314,6403
313,6404
314,6405
314,6406
314,6407
314,6408
314,6409
314,6410
314,6411
314,6412
314,6413
314,6414
314,6415
314,6416
315,6417
315,6418
315,6419
315,6420
316,6421
316,6422
317,6423
317,6424
318,6425
318,6426
318,6427
318,6428
318,6429
318,6430
317,6431
318,6432
318,6433
319,6434
320,6435
320,6435
320,6436
320,6437
320,6438
319,6439
319,6440
318,6441
318,6443
318,6444
318,6445
318,6446
318,6447
318,6448
318,6449
318,6450
318,6451
318,6452
317,6453
316,6454
315,6455
314,6456
314,6457
314,6458
313,6459
313,6460
313,6461
313,6462
313,6463
313,6464
313,6465
313,6466
314,6467
314,6468
314,6469
314,6470
314,6471
314,6472
314,6473
314,6474
315,6475
315,6476
315,6477
316,6478
316,6479
317,6480
317,6481
317,6482
318,6483
318,6484
318,6486
318,6487
318,6487
319,6488
319,6489
321,6490
322,6491
323,6492
323,6493
323,6494
321,6495
320,6496
319,6497
319,6498
318,6499
317,6500
315,6501
313,6502
313,6503
313,6504
314,6505
315,6506
315,6507
316,6508
316,6509
317,6510
318,6511
318,6512
318,6513
317,6514
317,6515
317,6516
318,6517
319,6518
320,6519
320,6520
320,6521
321,6522
321,6523
320,6524
320,6525
319,6526
319,6528
318,6529
318,6530
317,6531
318,6532
319,6533
319,6534
319,6535
319,6536
319,6537
319,6538
320,6539
321,6539
321,6540
322,6541
322,6542
322,6543
322,6544
323,6545
323,6546
322,6547
322,6548
321,6549
320,6550
319,6551
320,6552
321,6553
322,6554
322,6555
322,6556
323,6557
324,6558
324,6559
325,6560
326,6561
326,6562
326,6563
326,6564
326,6565
324,6566
323,6567
322,6568
322,6569
321,6571
321,6572
321,6573
320,6574
320,6575
319,6576
319,6577
319,6578
320,6579
320,6580
321,6581
321,6582
320,6583
319,6584
320,6585
323,6586
327,6587
331,6588
334,6589
336,6590
335,6590
335,6591
333,6592
331,6593
329,6594
329,6595
328,6596
328,6597
328,6598
328,6599
328,6600
328,6601
328,6602
328,6603
328,6604
327,6605
328,6606
329,6607
330,6608
331,6609
331,6610
329,6611
328,6612
326,6614
325,6615
324,6616
323,6617
324,6618
323,6619
323,6620
322,6621
321,6622
321,6623
320,6624
319,6625
319,6626
319,6627
319,6628
319,6629
321,6630
322,6631
323,6632
325,6633
327,6634
330,6635
334,6636
340,6637
345,6638
348,6639
350,6640
348,6641
345,6642
340,6642
335,6643
331,6644
328,6645
325,6646
324,6647
324,6648
323,6649
322,6650
320,6651
320,6652
318,6653
318,6654
317,6656
317,6657
318,6658
318,6659
319,6660
319,6661
318,6662
318,6663
317,6664
317,6665
317,6666
321,6667
326,6668
331,6669
335,6670
338,6671
338,6672
336,6673
331,6674
323,6675
317,6676
314,6677
315,6678
318,6679
321,6680
322,6681
322,6682
322,6683
324,6684
326,6685
328,6686
329,6687
329,6688
331,6689
333,6690
335,6691
336,6692
336,6693
334,6693
330,6694
325,6695
320,6696
316,6697
312,6699
310,6700
308,6701
308,6702
307,6703
306,6704
306,6705
307,6706
309,6707
311,6708
316,6709
322,6710
329,6711
335,6712
339,6713
341,6714
340,6715
336,6716
332,6717
328,6718
326,6719
326,6720
328,6721
329,6722
330,6723
330,6724
330,6725
330,6726
329,6727
329,6728
328,6729
328,6730
326,6731
326,6732
328,6733
332,6734
336,6735
337,6736
337,6737
333,6738
327,6739
322,6740
318,6742
317,6743
318,6744
319,6745
321,6746
326,6746
331,6747
337,6748
340,6749
341,6750
339,6751
333,6752
329,6753
324,6754
322,6755
320,6756
320,6757
320,6758
319,6759
318,6760
317,6761
316,6762
313,6763
310,6764
309,6765
309,6766
309,6767
311,6768
313,6769
314,6770
314,6771
313,6772
313,6773
311,6774
311,6775
311,6776
311,6777
311,6778
312,6779
313,6780
314,6781
314,6782
313,6784
313,6785
313,6786
313,6787
313,6788
313,6789
313,6790
317,6791
324,6792
329,6793
334,6794
337,6795
335,6796
330,6797
323,6797
318,6798
315,6799
315,6800
315,6801
317,6802
318,6803
319,6804
318,6805
319,6806
321,6807
325,6808
329,6809
331,6810
333,6811
333,6812
330,6813
327,6814
323,6815
319,6816
317,6817
316,6818
316,6819
316,6820
316,6821
315,6822
314,6823
315,6824
317,6825
320,6827
324,6828
327,6829
330,6830
333,6831
335,6832
337,6833
339,6834
339,6835
338,6836
337,6837
335,6838
333,6839
331,6840
330,6841
329,6842
328,6843
326,6844
324,6845
323,6846
320,6847
318,6848
315,6849
312,6849
311,6850
310,6851
310,6852
310,6853
310,6854
309,6855
308,6856
308,6857
310,6858
311,6859
311,6860
312,6861
313,6862
314,6863
314,6864
313,6865
313,6866
312,6867
313,6868
316,6870
319,6871
321,6872
326,6873
333,6874
339,6875
343,6876
349,6877
352,6878
349,6879
345,6880
340,6881
334,6882
325,6883
319,6884
314,6885
312,6886
312,6887
313,6888
316,6889
322,6890
329,6891
339,6892
346,6893
351,6894
351,6895
349,6896
344,6897
336,6898
329,6899
326,6900
326,6900
328,6901
331,6902
333,6903
331,6904
327,6905
322,6906
316,6907
310,6908
307,6909
306,6910
305,6912
304,6913
303,6914
303,6915
303,6916
303,6917
302,6918
302,6919
302,6920
302,6921
302,6922
302,6923
301,6924
301,6925
302,6926
303,6927
308,6928
314,6929
319,6930
322,6931
324,6932
324,6933
322,6934
322,6935
323,6936
325,6937
328,6938
329,6939
328,6940
325,6941
321,6942
317,6943
314,6944
313,6945
315,6946
317,6947
317,6948
316,6949
315,6950
314,6951
313,6952
309,6952
306,6953
306,6955
307,6956
304,6957
303,6958
301,6959
302,6960
305,6961
313,6962
319,6963
324,6964
328,6965
330,6966
332,6967
335,6968
337,6969
338,6970
339,6971
340,6972
337,6973
332,6974
327,6975
324,6976
323,6977
323,6978
323,6979
322,6980
320,6981
316,6982
312,6983
307,6984
303,6985
302,6986
302,6987
302,6988
301,6989
299,6990
297,6991
296,6992
296,6993
296,6994
296,6995
297,6996
297,6998
298,6999
299,7000
301,7001
303,7002
305,7003
306,7004
308,7004
310,7005
312,7006
313,7007
318,7008
326,7009
332,7010
335,7011
336,7012
335,7013
329,7014
322,7015
314,7016
309,7017
308,7018
312,7019
314,7020
315,7021
312,7022
312,7023
313,7024
316,7025
321,7026
326,7027
331,7028
333,7029
334,7030
334,7031
333,7032
333,7033
332,7034
331,7035
332,7036
332,7037
332,7038
332,7040
331,7041
333,7042
332,7043
327,7044
323,7045
319,7046
318,7047
316,7048
312,7049
308,7050
305,7051
303,7052
304,7053
306,7054
309,7055
312,7056
316,7056
322,7057
324,7058
326,7059
326,7060
323,7061
318,7062
311,7063
305,7064
302,7065
304,7066
308,7067
312,7068
314,7069
317,7070
316,7071
315,7072
314,7073
315,7074
318,7075
321,7076
323,7077
325,7078
327,7079
328,7080
328,7081
324,7083
320,7084
318,7085
317,7086
315,7087
314,7088
318,7089
321,7090
321,7091
318,7092
317,7093
315,7094
311,7095
307,7096
304,7097
305,7098
308,7099
311,7100
314,7101
317,7102
319,7103
320,7104
321,7105
319,7106
317,7107
317,7107
318,7108
320,7109
323,7110
326,7111
329,7112
331,7113
333,7114
334,7115
333,7116
330,7117
326,7118
322,7119
318,7120
316,7121
317,7122
316,7123
319,7124
322,7126
322,7127
322,7128
327,7129
332,7130
334,7131
334,7132
331,7133
324,7134
318,7135
309,7136
303,7137
299,7138
299,7139
299,7140
299,7141
299,7142
300,7143
301,7144
302,7145
303,7146
304,7147
304,7148
307,7149
309,7150
310,7151
311,7152
313,7153
314,7154
315,7155
316,7156
317,7157
318,7158
318,7158
324,7159
331,7160
335,7161
336,7162
336,7163
332,7164
329,7165
326,7166
321,7168
320,7169
321,7170
321,7171
320,7172
319,7173
319,7174
321,7175
322,7176
322,7177
321,7178
323,7179
324,7180
324,7181
326,7182
330,7183
331,7184
332,7185
330,7186
326,7187
322,7188
318,7189
315,7190
312,7191
311,7192
312,7193
312,7194
313,7195
314,7196
312,7197
308,7198
304,7199
301,7200
297,7201
295,7202
297,7203
299,7204
301,7205
305,7206
308,7207
309,7208
308,7209
307,7211
306,7211
307,7212
311,7213
319,7214
325,7215
329,7216
330,7217
329,7218
325,7219
317,7220
312,7221
309,7222
309,7223
310,7224
310,7225
307,7226
305,7227
304,7228
305,7229
306,7230
309,7231
311,7232
313,7233
315,7234
318,7235
322,7236
325,7237
329,7238
333,7239
333,7240
331,7241
327,7242
323,7243
318,7244
313,7245
313,7246
314,7247
317,7248
318,7249
317,7250
314,7251
308,7252
304,7254
300,7255
299,7256
305,7257
311,7258
317,7259
321,7260
322,7261
321,7262
319,7263
316,7263
313,7264
309,7265
305,7266
304,7267
304,7268
303,7269
303,7270
303,7271
303,7272
304,7273
305,7274
305,7275
305,7276
304,7277
303,7278
303,7279
302,7280
305,7281
311,7282
315,7283
317,7284
319,7285
319,7286
312,7287
305,7288
300,7289
297,7290
299,7291
301,7292
305,7293
311,7294
315,7296
319,7297
323,7298
323,7299
323,7300
323,7301
322,7302
320,7303
317,7304
315,7305
313,7306
311,7307
310,7308
309,7309
308,7310
308,7311
308,7312
308,7313
313,7314
315,7314
315,7315
314,7316
312,7317
308,7318
303,7319
300,7320
300,7321
302,7322
304,7323
306,7324
308,7325
308,7326
308,7327
309,7328
309,7329
308,7330
306,7331
302,7332
300,7333
305,7334
313,7335
318,7336
321,7337
321,7339
319,7340
312,7341
301,7342
295,7343
293,7344
294,7345
295,7346
296,7347
298,7348
300,7349
302,7350
302,7351
302,7352
301,7353
300,7354
298,7355
298,7356
302,7357
306,7358
309,7359
311,7360
313,7361
311,7362
308,7363
307,7364
305,7365
302,7365
303,7366
304,7367
306,7368
310,7369
315,7370
317,7371
318,7372
318,7373
319,7374
316,7375
315,7376
318,7377
319,7378
321,7379
322,7380
321,7382
318,7383
318,7384
320,7385
324,7386
327,7387
326,7388
324,7389
320,7390
315,7391
312,7392
309,7393
308,7394
309,7395
309,7396
309,7397
309,7398
307,7399
304,7400
302,7401
302,7402
303,7403
306,7404
309,7405
315,7406
319,7407
319,7408
317,7409
312,7410
308,7411
303,7412
301,7413
301,7414
302,7415
301,7416
301,7416
298,7417
296,7418
294,7419
293,7420
292,7421
293,7422
296,7424
298,7425
302,7426
304,7427
304,7428
304,7429
302,7430
301,7431
303,7432
307,7433
311,7434
314,7435
318,7436
322,7437
326,7438
326,7439
327,7440
327,7441
327,7442
325,7443
321,7444
316,7445
312,7446
308,7447
305,7448
303,7449
302,7450
302,7451
303,7452
306,7453
308,7454
310,7455
311,7456
309,7457
307,7458
304,7459
302,7460
303,7461
306,7462
311,7463
314,7464
318,7465
321,7467
318,7468
315,7469
312,7469
310,7470
307,7471
305,7472
306,7473
312,7474
317,7475
322,7476
324,7477
323,7478
319,7479
313,7480
307,7481
303,7482
300,7483
297,7484
298,7485
299,7486
300,7487
303,7488
306,7489
308,7490
308,7491
308,7492
309,7493
309,7494
310,7495
310,7496
310,7497
309,7498
306,7499
303,7500
301,7501
299,7502
298,7503
300,7504
304,7505
309,7506
312,7507
314,7508
314,7510
312,7511
307,7512
305,7513
308,7514
310,7515
311,7516
314,7517
316,7518
314,7519
314,7520
313,7520
314,7521
316,7522
315,7523
314,7524
311,7525
307,7526
302,7527
298,7528
293,7529
289,7530
287,7531
288,7532
290,7533
292,7534
294,7535
297,7536
299,7537
301,7538
304,7539
309,7540
316,7541
320,7542
322,7543
322,7544
317,7545
309,7546
302,7547
296,7548
294,7549
296,7550
300,7552
306,7553
314,7554
318,7555
319,7556
318,7557
316,7558
312,7559
307,7560
302,7561
300,7562
299,7563
296,7564
294,7565
293,7566
291,7567
291,7568
291,7569
290,7570
291,7571
296,7572
299,7572
302,7573
305,7574
310,7575
314,7576
322,7577
329,7578
332,7579
334,7580
333,7581
329,7582
320,7583
312,7584
310,7585
311,7586
312,7587
311,7588
309,7589
308,7590
306,7591
303,7592
301,7593
301,7595
302,7596
304,7597
305,7598
304,7599
304,7600
303,7601
301,7602
299,7603
295,7604
295,7605
297,7606
297,7607
297,7608
299,7609
302,7610
307,7611
311,7612
311,7613
311,7614
313,7615
316,7616
317,7617
318,7618
321,7619
319,7620
314,7621
307,7622
302,7623
300,7623
300,7624
298,7625
297,7626
297,7627
298,7628
297,7629
297,7630
303,7631
308,7632
312,7633
314,7634
315,7635
312,7636
310,7638
308,7639
308,7640
308,7641
306,7642
307,7643
308,7644
309,7645
308,7646
307,7647
303,7648
298,7649
292,7650
289,7651
287,7652
288,7653
293,7654
299,7655
306,7656
312,7657
316,7658
319,7659
321,7660
320,7661
318,7662
316,7663
315,7664
314,7665
314,7666
315,7667
315,7668
313,7669
313,7670
312,7671
312,7672
312,7673
311,7674
310,7675
309,7675
308,7676
308,7677
308,7678
309,7680
312,7681
313,7682
314,7683
313,7684
311,7685
312,7686
314,7687
313,7688
312,7689
311,7690
310,7691
311,7692
312,7693
311,7694
311,7695
311,7696
309,7697
305,7698
305,7699
306,7700
307,7701
307,7702
307,7703
305,7704
303,7705
300,7706
300,7707
301,7708
302,7709
302,7710
304,7711
310,7712
313,7713
315,7714
314,7715
312,7716
307,7717
303,7718
298,7719
299,7720
301,7721
304,7723
309,7724
316,7725
322,7726
323,7727
325,7728
326,7728
324,7729
322,7730
319,7731
314,7732
310,7733
308,7734
306,7735
306,7736
304,7737
307,7738
309,7739
310,7740
312,7741
312,7742
310,7743
308,7744
305,7745
304,7746
303,7747
303,7748
302,7749
301,7750
300,7751
298,7752
296,7753
295,7754
294,7755
294,7756
300,7757
308,7758
314,7759
319,7760
322,7761
323,7762
321,7763
318,7764
315,7766
313,7767
315,7768
323,7769
329,7770
333,7771
336,7772
333,7773
326,7774
316,7775
306,7776
301,7777
299,7778
299,7779
300,7779
300,7780
299,7781
298,7782
297,7783
298,7784
297,7785
296,7786
295,7787
295,7788
297,7789
302,7790
309,7791
313,7792
316,7793
316,7794
314,7795
311,7796
311,7797
312,7798
315,7799
319,7800
321,7801
321,7802
321,7803
324,7804
326,7805
328,7806
326,7808
323,7809
319,7810
312,7811
306,7812
302,7813
304,7814
307,7815
310,7816
313,7817
314,7818
313,7819
313,7820
312,7821
310,7822
309,7823
308,7824
307,7825
307,7826
308,7827
311,7828
311,7829
312,7830
313,7831
317,7831
319,7832
318,7833
316,7834
315,7835
312,7836
307,7837
303,7838
302,7839
302,7840
302,7841
304,7842
306,7843
308,7844
311,7845
314,7846
316,7847
317,7848
316,7849
313,7851
312,7852
310,7853
306,7854
305,7855
307,7856
316,7857
323,7858
329,7859
332,7860
332,7861
329,7862
324,7863
319,7864
315,7865
313,7866
310,7867
308,7868
308,7869
309,7870
309,7871
310,7872
313,7873
313,7874
313,7875
312,7876
310,7877
310,7878
311,7879
310,7880
310,7881
309,7882
311,7882
312,7883
312,7884
311,7885
312,7886
311,7887
310,7888
309,7889
308,7890
310,7891
314,7892
319,7894
324,7895
327,7896
326,7897
325,7898
323,7899
319,7900
314,7901
313,7902
314,7903
314,7904
313,7905
312,7906
311,7907
311,7908
310,7909
307,7910
307,7911
305,7912
304,7913
303,7914
306,7915
311,7916
317,7917
324,7918
330,7919
333,7920
332,7921
330,7922
326,7923
320,7924
315,7925
309,7926
304,7927
302,7928
300,7929
299,7930
300,7931
302,7932
307,7933
312,7934
314,7934
314,7936
313,7937
309,7938
306,7939
305,7940
304,7941
306,7942
310,7943
312,7944
312,7945
312,7946
310,7947
309,7948
311,7949
315,7950
320,7951
324,7952
326,7953
325,7954
322,7955
318,7956
316,7957
317,7958
317,7959
316,7960
316,7961
317,7962
318,7963
320,7964
322,7965
322,7966
320,7967
316,7968
312,7969
309,7970
310,7971
311,7972
314,7973
317,7974
316,7975
315,7976
313,7977
310,7979
313,7980
317,7981
318,7982
317,7983
316,7984
316,7985
316,7986
317,7986
319,7987
320,7988
318,7989
316,7990
315,7991
312,7992
309,7993
308,7994
311,7995
315,7996
323,7997
326,7998
325,7999
323,8000
319,8001
316,8002
315,8003
315,8004
316,8005
317,8006
318,8007
317,8008
315,8009
311,8010
309,8011
307,8012
307,8013
307,8014
306,8015
305,8016
305,8017
305,8018
308,8019
316,8020
323,8022
328,8023
331,8024
331,8025
330,8026
327,8027
326,8028
326,8029
325,8030
324,8031
323,8032
320,8033
319,8034
318,8035
317,8036
315,8037
311,8038
307,8038
305,8039
304,8040
304,8041
304,8042
302,8043
300,8044
299,8045
300,8046
300,8047
300,8048
304,8049
313,8050
321,8051
328,8052
333,8053
335,8054
333,8055
329,8056
324,8057
321,8058
322,8059
320,8060
316,8061
315,8062
313,8064
312,8065
312,8066
314,8067
318,8068
322,8069
322,8070
323,8071
321,8072
317,8073
314,8074
315,8075
317,8076
321,8077
324,8078
329,8079
332,8080
330,8081
325,8082
318,8083
311,8084
306,8085
303,8086
304,8087
308,8088
315,8089
319,8090
323,8090
324,8091
323,8092
322,8093
317,8094
311,8095
307,8096
306,8097
305,8098
307,8099
308,8100
308,8101
311,8102
314,8103
315,8104
316,8105
317,8107
319,8108
318,8109
319,8110
323,8111
326,8112
329,8113
327,8114
322,8115
319,8116
317,8117
313,8118
309,8119
305,8120
302,8121
299,8122
298,8123
299,8124
302,8125
306,8126
310,8127
312,8128
314,8129
314,8130
311,8131
307,8132
305,8133
306,8134
312,8135
316,8136
317,8137
320,8138
322,8139
319,8140
317,8141
316,8141
318,8142
318,8143
317,8144
316,8145
319,8146
323,8147
327,8148
329,8150
329,8151
326,8152
319,8153
311,8154
304,8155
301,8156
298,8157
296,8158
293,8159
295,8160
301,8161
305,8162
309,8163
311,8164
311,8165
308,8166
305,8167
302,8168
300,8169
301,8170
305,8171
308,8172
309,8173
310,8174
312,8175
313,8176
311,8177
310,8178
312,8179
313,8180
313,8181
313,8182
314,8183
316,8184
320,8185
322,8186
323,8187
322,8188
320,8189
315,8190
311,8192
310,8193
311,8193
310,8194
308,8195
307,8196
309,8197
312,8198
316,8199
322,8200
326,8201
330,8202
329,8203
326,8204
321,8205
315,8206
311,8207
308,8208
306,8209
302,8210
297,8211
294,8212
292,8213
292,8214
294,8215
297,8216
301,8217
307,8218
312,8219
315,8220
315,8221
315,8222
316,8223
320,8224
325,8225
326,8226
326,8227
324,8228
319,8229
312,8230
306,8231
303,8232
303,8233
307,8235
312,8236
316,8237
318,8238
319,8239
316,8240
310,8241
303,8242
299,8243
297,8244
296,8245
298,8245
299,8246
301,8247
304,8248
306,8249
304,8250
301,8251
297,8252
293,8253
291,8254
290,8255
290,8256
293,8257
296,8258
300,8259
309,8260
319,8261
329,8262
336,8263
341,8264
336,8265
329,8266
321,8267
314,8268
307,8269
302,8270
302,8271
303,8272
302,8273
303,8274
306,8275
308,8276
310,8278
311,8279
311,8280
311,8281
311,8282
312,8283
310,8284
309,8285
309,8286
308,8287
309,8288
310,8289
319,8290
323,8291
328,8292
328,8293
326,8294
320,8295
316,8296
316,8296
316,8297
314,8298
312,8299
309,8300
305,8301
298,8302
294,8303
296,8304
300,8305
303,8306
304,8307
304,8308
303,8309
302,8310
302,8311
304,8312
306,8313
306,8314
304,8315
306,8316
309,8317
312,8318
318,8320
320,8321
321,8322
321,8323
320,8324
318,8325
315,8326
312,8327
309,8328
306,8329
305,8330
306,8331
306,8332
306,8333
308,8334
311,8335
318,8336
325,8337
328,8338
328,8339
326,8340
321,8341
311,8342
304,8343
299,8344
292,8345
289,8346
290,8347
294,8348
298,8348
303,8349
307,8350
313,8351
315,8352
316,8353
316,8354
316,8355
310,8356
305,8357
303,8358
303,8359
304,8360
306,8361
310,8363
317,8364
323,8365
327,8366
330,8367
330,8368
327,8369
323,8370
316,8371
309,8372
304,8373
306,8374
308,8375
307,8376
310,8377
316,8378
320,8379
323,8380
325,8381
326,8382
323,8383
317,8384
307,8385
298,8386
290,8387
287,8388
287,8389
290,8390
296,8391
302,8392
308,8393
314,8394
322,8395
327,8396
326,8397
325,8398
324,8399
322,8399
317,8400
312,8401
309,8402
309,8403
307,8404
305,8406
304,8407
301,8408
299,8409
297,8410
297,8411
296,8412
294,8413
292,8414
291,8415
290,8416
292,8417
297,8418
303,8419
307,8420
313,8421
317,8422
320,8423
321,8424
324,8425
327,8426
330,8427
333,8428
333,8429
331,8430
326,8431
318,8432
309,8433
304,8434
302,8435
299,8436
298,8437
300,8438
302,8439
300,8440
300,8441
300,8442
301,8443
303,8444
304,8445
304,8446
302,8448
302,8449
304,8450
309,8451
316,8452
326,8452
334,8453
337,8454
335,8455
332,8456
326,8457
322,8458
323,8459
321,8460
315,8461
310,8462
305,8463
302,8464
303,8465
305,8466
308,8467
312,8468
318,8469
322,8470
320,8471
317,8472
315,8473
313,8474
309,8475
305,8476
301,8477
299,8478
300,8479
303,8480
306,8481
312,8482
317,8483
319,8484
318,8485
314,8486
310,8487
305,8488
299,8489
295,8491
293,8492
290,8493
291,8494
293,8495
299,8496
309,8497
315,8498
320,8499
325,8500
328,8501
326,8502
321,8503
316,8503
310,8504
306,8505
309,8506
314,8507
317,8508
320,8509
323,8510
323,8511
322,8512
319,8513
313,8514
308,8515
306,8516
306,8517
310,8518
316,8519
319,8520
318,8521
317,8522
316,8523
315,8524
314,8525
313,8526
314,8527
312,8528
308,8529
304,8530
301,8531
299,8532
298,8534
299,8535
300,8536
301,8537
308,8538
316,8539
323,8540
330,8541
333,8542
336,8543
333,8544
323,8545
314,8546
305,8547
297,8548
291,8549
290,8550
290,8551
293,8552
297,8553
301,8554
304,8555
306,8555
305,8556
304,8557
303,8558
303,8559
303,8560
303,8561
302,8562
304,8563
305,8564
307,8565
307,8566
306,8567
305,8568
305,8569
307,8570
310,8571
312,8572
313,8573
313,8574
313,8576
312,8577
308,8578
309,8579
311,8580
314,8581
316,8582
317,8583
317,8584
316,8585
313,8586
313,8587
316,8588
320,8589
325,8590
329,8591
329,8592
327,8593
327,8594
330,8595
330,8596
327,8597
325,8598
321,8599
315,8600
306,8601
302,8602
303,8603
307,8604
312,8605
313,8606
314,8606
320,8607
322,8608
324,8609
329,8610
335,8611
336,8612
333,8613
329,8614
324,8615
318,8616
311,8617
306,8619
305,8620
307,8621
309,8622
309,8623
307,8624
305,8625
305,8626
307,8627
311,8628
311,8629
311,8630
310,8631
310,8632
313,8633
313,8634
310,8635
309,8636
310,8637
310,8638
305,8639
301,8640
298,8641
297,8642
299,8643
299,8644
299,8645
300,8646
301,8647
303,8648
305,8649
308,8650
310,8651
313,8652
313,8653
313,8654
314,8655
315,8656
314,8657
313,8658
311,8658
311,8659
315,8660
320,8662
324,8663
324,8664
320,8665
315,8666
309,8667
302,8668
301,8669
303,8670
307,8671
314,8672
319,8673
321,8674
321,8675
319,8676
315,8677
310,8678
308,8679
306,8680
308,8681
314,8682
320,8683
323,8684
328,8685
335,8686
338,8687
339,8688
339,8689
337,8690
334,8691
331,8692
325,8693
319,8694
316,8695
314,8696
309,8697
303,8698
296,8699
291,8700
292,8701
293,8702
293,8704
293,8705
293,8706
297,8707
304,8708
313,8709
319,8710
323,8710
324,8711
326,8712
327,8713
326,8714
326,8715
328,8716
327,8717
321,8718
311,8719
301,8720
295,8721
294,8722
296,8723
298,8724
302,8725
306,8726
310,8727
313,8728
315,8729
315,8730
311,8731
308,8732
308,8733
312,8734
319,8735
326,8736
335,8737
339,8738
340,8739
336,8740
328,8741
316,8742
306,8743
298,8744
293,8745
291,8747
290,8748
292,8749
298,8750
305,8751
313,8752
318,8753
323,8754
324,8755
323,8756
322,8757
322,8758
320,8759
321,8760
324,8761
325,8761
325,8762
325,8763
326,8764
323,8765
319,8766
315,8767
312,8768
310,8769
315,8770
324,8771
330,8772
334,8773
334,8774
331,8775
325,8776
317,8777
308,8778
301,8779
297,8780
295,8781
292,8782
291,8783
291,8784
293,8785
297,8786
299,8787
298,8788
297,8790
295,8791
294,8792
295,8793
294,8794
296,8795
297,8796
299,8797
306,8798
314,8799
319,8800
324,8801
326,8802
326,8803
325,8804
321,8805
315,8806
310,8807
304,8808
298,8809
297,8810
302,8811
307,8812
314,8813
321,8813
325,8814
326,8815
324,8816
320,8817
314,8818
310,8819
309,8820
312,8821
314,8822
319,8823
325,8824
328,8825
327,8826
325,8827
320,8828
316,8829
316,8830
317,8832
316,8833
314,8834
312,8835
310,8836
308,8837
305,8838
301,8839
299,8840
299,8841
300,8842
303,8843
305,8844
307,8845
307,8846
306,8847
307,8848
306,8849
306,8850
307,8851
308,8852
310,8853
311,8854
309,8855
307,8856
308,8857
310,8858
314,8859
318,8860
321,8861
321,8862
320,8863
315,8864
308,8864
302,8865
298,8866
296,8867
296,8868
298,8869
303,8870
309,8871
311,8872
311,8873
308,8875
303,8876
300,8877
301,8878
305,8879
308,8880
311,8881
313,8882
315,8883
314,8884
315,8885
318,8886
321,8887
321,8888
321,8889
323,8890
326,8891
325,8892
323,8893
321,8894
319,8895
318,8896
318,8897
318,8898
318,8899
321,8900
324,8901
326,8902
329,8903
334,8904
333,8905
326,8906
319,8907
313,8908
310,8909
312,8910
315,8911
316,8912
315,8913
313,8914
310,8915
305,8916
300,8916
297,8918
297,8919
298,8920
301,8921
305,8922
311,8923
315,8924
316,8925
315,8926
316,8927
317,8928
317,8929
314,8930
308,8931
301,8932
295,8933
289,8934
287,8935
291,8936
294,8937
296,8938
297,8939
297,8940
298,8941
298,8942
299,8943
306,8944
314,8945
320,8946
324,8947
329,8948
332,8949
330,8950
329,8951
328,8952
324,8953
322,8954
317,8955
311,8956
307,8957
307,8958
308,8960
307,8961
306,8962
304,8963
304,8964
307,8965
309,8966
311,8967
313,8968
313,8968
312,8969
310,8970
308,8971
309,8972
307,8973
305,8974
304,8975
305,8976
312,8977
318,8978
323,8979
326,8980
327,8981
327,8982
323,8983
317,8984
312,8985
309,8986
308,8987
308,8988
306,8989
302,8990
299,8991
297,8992
295,8993
292,8994
290,8995
293,8996
298,8997
303,8998
311,8999
317,9000
322,9001
325,9003
329,9004
329,9005
329,9006
328,9007
323,9008
318,9009
314,9010
310,9011
308,9012
304,9013
300,9014
300,9015
302,9016
300,9017
299,9018
298,9019
297,9020
299,9020
302,9021
305,9022
306,9023
305,9024
304,9025
306,9026
311,9027
316,9028
322,9029
325,9030
328,9031
328,9032
324,9033
322,9034
322,9035
324,9036
326,9037
329,9038
331,9039
330,9040
327,9041
326,9042
323,9043
320,9044
319,9046
317,9047
314,9048
314,9049
316,9050
318,9051
319,9052
320,9053
318,9054
313,9055
307,9056
304,9057
303,9058
306,9059
312,9060
318,9061
325,9062
331,9063
333,9064
330,9065
325,9066
324,9067
325,9068
326,9069
323,9070
319,9071
316,9071
311,9072
301,9073
295,9074
292,9075
290,9076
291,9077
296,9078
303,9079
310,9080
315,9081
316,9082
315,9083
313,9084
309,9085
304,9086
300,9088
296,9089
297,9090
301,9091
302,9092
307,9093
314,9094
322,9095
329,9096
333,9097
331,9098
328,9099
321,9100
314,9101
305,9102
299,9103
295,9104
292,9105
291,9106
292,9107
295,9108
296,9109
297,9110
299,9111
302,9112
305,9113
309,9114
315,9115
322,9116
330,9117
339,9118
348,9119
355,9120
355,9121
351,9122
349,9122
342,9123
332,9124
321,9125
312,9126
303,9127
294,9128
289,9129
287,9131
289,9132
291,9133
291,9134
292,9135
292,9136
292,9137
292,9138
290,9139
288,9140
287,9141
286,9142
286,9143
289,9144
293,9145
296,9146
301,9147
305,9148
307,9149
309,9150
313,9151
321,9152
331,9153
340,9154
346,9155
349,9156
350,9157
345,9158
335,9159
326,9160
319,9161
314,9162
310,9163
309,9164
309,9165
308,9166
307,9167
307,9168
308,9169
306,9170
303,9171
305,9172
310,9174
312,9175
318,9175
324,9176
331,9177
336,9178
337,9179
337,9180
336,9181
336,9182
333,9183
326,9184
320,9185
317,9186
318,9187
317,9188
315,9189
312,9190
311,9191
311,9192
310,9193
308,9194
305,9195
302,9196
297,9197
291,9198
288,9199
286,9200
291,9201
295,9202
299,9203
302,9204
305,9205
306,9206
304,9207
300,9208
299,9209
298,9210
299,9211
301,9212
306,9213
310,9214
312,9216
314,9217
316,9218
315,9219
313,9220
310,9221
305,9222
301,9223
298,9224
300,9225
308,9226
318,9226
325,9227
329,9228
329,9229
326,9230
319,9231
313,9232
309,9233
306,9234
303,9235
298,9236
295,9237
293,9238
292,9239
294,9240
298,9241
303,9242
307,9243
312,9244
317,9245
321,9246
327,9247
332,9248
338,9249
341,9250
342,9251
341,9252
339,9253
335,9254
327,9255
319,9256
310,9257
302,9259
299,9260
298,9261
297,9262
296,9263
294,9264
293,9265
297,9266
303,9267
312,9268
320,9269
324,9270
325,9271
322,9272
317,9273
313,9274
311,9275
313,9276
316,9277
321,9277
328,9278
332,9279
332,9280
329,9281
322,9282
315,9283
309,9284
303,9285
299,9286
296,9287
297,9288
299,9289
301,9290
302,9291
305,9292
307,9293
308,9294
306,9295
305,9296
304,9297
305,9298
310,9299
313,9300
319,9302
329,9303
334,9304
333,9305
331,9306
324,9307
318,9308
316,9309
316,9310
315,9311
314,9312
313,9313
312,9314
310,9315
307,9316
305,9317
305,9318
306,9319
308,9320
307,9321
304,9322
303,9323
303,9324
303,9325
304,9326
306,9327
309,9328
314,9329
320,9330
325,9330
331,9331
341,9332
347,9333
348,9334
344,9335
335,9336
325,9337
315,9338
306,9339
301,9340
298,9341
299,9342
302,9344
304,9345
304,9346
304,9347
303,9348
301,9349
300,9350
301,9351
303,9352
306,9353
305,9354
309,9355
315,9356
320,9357
327,9358
330,9359
331,9360
327,9361
324,9362
321,9363
320,9364
323,9365
324,9366
323,9367
320,9368
315,9369
306,9370
303,9371
302,9372
300,9373
297,9374
297,9375
300,9376
301,9377
300,9378
304,9379
309,9380
312,9381
313,9381
315,9382
314,9383
310,9384
305,9385
302,9387
303,9388
309,9389
315,9390
321,9391
326,9392
329,9393
326,9394
320,9395
317,9396
320,9397
322,9398
320,9399
315,9400
308,9401
301,9402
294,9403
290,9404
290,9405
290,9406
291,9407
291,9408
289,9409
288,9410
290,9411
296,9412
306,9413
319,9414
332,9415
342,9416
348,9417
351,9418
350,9419
345,9420
335,9421
323,9422
313,9423
310,9424
308,9425
305,9426
304,9427
306,9428
310,9430
314,9431
317,9432
321,9433
326,9434
329,9434
329,9435
327,9436
322,9437
316,9438
309,9439
303,9440
298,9441
296,9442
302,9443
308,9444
315,9445
321,9446
327,9447
334,9448
336,9449
336,9450
333,9451
328,9452
326,9453
321,9454
314,9455
306,9456
298,9457
294,9458
295,9459
299,9460
302,9461
302,9462
302,9463
300,9464
297,9465
295,9466
295,9467
294,9468
295,9469
299,9470
301,9472
305,9473
309,9474
314,9475
319,9476
321,9477
320,9478
316,9479
311,9480
309,9481
309,9482
309,9483
308,9484
312,9485
316,9486
315,9486
313,9487
311,9488
308,9489
304,9490
302,9491
302,9492
301,9493
303,9494
308,9495
315,9496
322,9497
327,9498
330,9499
335,9500
339,9501
338,9502
334,9503
328,9504
318,9505
309,9506
304,9507
301,9508
302,9509
307,9510
313,9511
318,9512
322,9513
326,9515
332,9516
335,9517
335,9518
333,9519
329,9520
321,9521
311,9522
301,9523
295,9524
295,9525
295,9526
298,9527
302,9528
306,9529
306,9530
302,9531
296,9532
290,9533
288,9534
288,9535
287,9536
286,9537
288,9537
294,9538
303,9539
313,9540
320,9541
324,9542
325,9543
323,9544
318,9545
312,9546
304,9547
297,9548
297,9549
297,9550
299,9551
301,9552
300,9553
302,9554
308,9555
311,9556
313,9558
311,9559
308,9560
305,9561
302,9562
300,9563
297,9564
297,9565
298,9566
301,9567
305,9568
310,9569
313,9570
319,9571
326,9572
333,9573
340,9574
343,9575
344,9576
343,9577
342,9578
339,9579
334,9580
329,9581
326,9582
322,9583
316,9584
313,9585
310,9586
306,9587
301,9588
297,9589
293,9590
290,9591
288,9591
290,9592
293,9593
296,9594
299,9595
302,9596
304,9597
305,9598
308,9600
310,9601
312,9602
315,9603
320,9604
328,9605
340,9606
351,9607
358,9608
357,9609
348,9610
338,9611
330,9612
326,9613
323,9614
318,9615
312,9616
305,9617
297,9618
292,9619
288,9620
287,9621
288,9622
289,9623
291,9624
293,9625
296,9626
299,9627
307,9628
319,9629
335,9630
348,9631
353,9632
352,9633
349,9634
339,9635
323,9636
307,9637
301,9638
300,9639
301,9640
300,9641
298,9643
295,9644
293,9644
293,9645
293,9646
294,9647
296,9648
299,9649
305,9650
310,9651
317,9652
322,9653
326,9654
329,9655
330,9656
330,9657
331,9658
329,9659
325,9660
322,9661
323,9662
322,9663
320,9664
316,9665
313,9666
311,9667
307,9668
303,9669
300,9670
300,9671
300,9672
299,9673
298,9674
298,9675
297,9676
296,9677
295,9678
295,9679
297,9680
304,9681
312,9682
320,9683
325,9684
327,9686
328,9687
325,9688
322,9689
320,9690
313,9691
309,9692
307,9693
306,9694
310,9695
315,9696
320,9696
326,9697
328,9698
327,9699
323,9700
318,9701
313,9702
309,9703
303,9704
297,9705
290,9706
289,9707
291,9708
299,9709
311,9710
321,9711
330,9712
335,9713
335,9714
337,9715
343,9716
345,9717
343,9718
337,9719
330,9720
323,9721
318,9722
314,9723
317,9724
320,9725
326,9726
331,9728
335,9729
339,9730
339,9731
333,9732
323,9733
313,9734
301,9735
295,9736
294,9737
294,9738
294,9739
293,9740
292,9741
292,9742
292,9743
292,9744
292,9745
293,9746
293,9747
295,9747
299,9748
305,9749
312,9750
320,9751
329,9752
333,9753
334,9754
331,9755
327,9756
322,9757
317,9758
311,9759
311,9760
316,9761
323,9762
329,9763
333,9764
332,9765
327,9766
315,9767
304,9768
297,9769
293,9771
293,9772
292,9773
291,9774
291,9775
292,9776
294,9777
296,9778
298,9779
299,9780
300,9781
302,9782
305,9783
319,9784
333,9785
346,9786
354,9787
356,9788
352,9789
344,9790
334,9791
323,9792
323,9793
325,9794
325,9795
323,9796
320,9797
316,9798
312,9798
308,9799
302,9800
298,9801
295,9802
292,9803
292,9804
292,9805
293,9806
294,9807
296,9808
297,9809
301,9810
311,9811
319,9812
328,9814
334,9815
338,9816
339,9817
337,9818
333,9819
327,9820
322,9821
315,9822
306,9823
301,9824
297,9825
294,9826
295,9827
298,9828
306,9829
313,9830
317,9831
318,9832
318,9833
316,9834
310,9835
302,9836
297,9837
300,9838
309,9839
317,9840
324,9841
328,9842
329,9843
327,9844
325,9845
323,9846
323,9847
324,9848
326,9849
324,9850
320,9850
313,9851
305,9852
298,9853
293,9854
290,9856
291,9857
294,9858
301,9859
311,9860
319,9861
325,9862
329,9863
330,9864
330,9865
329,9866
327,9867
329,9868
333,9869
335,9870
335,9871
334,9872
333,9873
328,9874
322,9875
321,9876
321,9877
318,9878
314,9879
310,9880
306,9881
301,9882
295,9883
289,9884
286,9885
288,9886
293,9887
297,9888
300,9889
302,9890
309,9891
316,9892
320,9893
321,9894
319,9895
314,9896
308,9897
305,9899
307,9900
310,9901
315,9902
319,9902
322,9903
322,9904
319,9905
314,9906
312,9907
312,9908
312,9909
313,9910
313,9911
317,9912
320,9913
319,9914
316,9915
315,9916
315,9917
313,9918
309,9919
306,9920
305,9921
307,9922
308,9923
307,9924
307,9925
309,9926
313,9927
313,9928
312,9929
309,9930
307,9931
304,9932
305,9933
308,9934
311,9935
313,9936
313,9937
315,9938
316,9939
320,9940
325,9942
331,9943
337,9944
339,9945
337,9946
331,9947
325,9948
319,9949
316,9950
317,9951
317,9952
318,9953
316,9954
311,9954
306,9955
304,9956
305,9957
305,9958
307,9959
305,9960
303,9961
301,9962
298,9963
296,9964
295,9965
294,9966
294,9967
294,9968
296,9969
298,9970
306,9971
314,9972
320,9973
325,9974
329,9975
333,9976
332,9977
329,9978
325,9979
320,9980
315,9981
306,9982
300,9984
296,9985
297,9986
297,9987
296,9988
297,9989
301,9990
306,9991
311,9992
313,9993
312,9994
310,9995
309,9996
308,9997
307,9998
306,9999
305,10000
308,10001
311,10002
312,10003
317,10004
325,10005
332,10005
338,10006
344,10007
346,10008
345,10009
341,10010
336,10011
331,10012
325,10013
321,10014
318,10015
318,10016
320,10017
319,10018
315,10019
309,10020
302,10021
295,10022
290,10023
286,10024
283,10025
283,10027
286,10028
290,10029
294,10030
297,10031
298,10032
298,10033
299,10034
302,10035
304,10036
308,10037
311,10038
317,10039
320,10040
321,10041
321,10042
321,10043
323,10044
330,10045
344,10046
355,10047
361,10048
361,10049
356,10050
345,10051
332,10052
320,10053
308,10054
301,10055
298,10056
296,10057
295,10057
296,10058
297,10059
298,10060
297,10061
297,10062
296,10063
295,10064
294,10065
291,10066
289,10067
288,10068
286,10070
289,10071
300,10072
312,10073
326,10074
336,10075
341,10076
342,10077
337,10078
330,10079
324,10080
320,10081
317,10082
315,10083
312,10084
308,10085
306,10086
306,10087
308,10088
313,10089
318,10090
321,10091
323,10092
324,10093
321,10094
318,10095
317,10096
314,10097
310,10098
309,10099
307,10100
305,10101
306,10102
311,10103
317,10104
323,10105
327,10106
329,10107
327,10108
321,10108
317,10109
314,10110
311,10112
311,10113
315,10114
320,10115
325,10116
327,10117
325,10118
320,10119
312,10120
305,10121
302,10122
300,10123
301,10124
302,10125
305,10126
307,10127
307,10128
306,10129
306,10130
308,10131
311,10132
311,10133
308,10134
304,10135
304,10136
306,10137
311,10138
317,10139
320,10140
320,10141
319,10142
319,10143
318,10144
317,10145
315,10146
311,10147
307,10148
305,10149
305,10150
307,10151
311,10152
313,10153
315,10155
314,10156
312,10157
310,10158
307,10159
304,10160
304,10161
307,10161
310,10162
313,10163
316,10164
319,10165
322,10166
323,10167
325,10168
327,10169
327,10170
326,10171
326,10172
325,10173
325,10174
324,10175
322,10176
320,10177
316,10178
311,10179
307,10180
305,10181
306,10182
307,10183
308,10184
308,10185
311,10186
313,10187
313,10188
314,10189
316,10190
319,10191
320,10192
319,10193
317,10194
316,10195
315,10196
313,10198
310,10199
307,10200
304,10201
301,10202
298,10203
295,10204
296,10205
301,10206
306,10207
311,10208
315,10209
317,10210
319,10211
319,10212
318,10212
320,10213
323,10214
325,10215
326,10216
328,10217
328,10218
325,10219
318,10220
310,10221
306,10222
302,10223
301,10224
302,10225
306,10226
311,10227
313,10228
312,10229
311,10230
314,10231
318,10232
323,10233
328,10234
327,10235
323,10236
319,10237
313,10238
308,10240
304,10241
302,10242
300,10243
300,10244
301,10245
304,10246
311,10247
318,10248
323,10249
327,10250
329,10251
329,10252
326,10253
320,10254
316,10255
315,10256
315,10257
317,10258
318,10259
320,10260
322,10261
323,10262
323,10263
320,10264
315,10264
309,10265
307,10266
306,10267
306,10268
309,10269
314,10270
318,10271
319,10272
318,10273
315,10274
311,10275
305,10276
300,10277
297,10278
295,10279
292,10280
291,10281
289,10283
288,10284
288,10285
290,10286
293,10287
296,10288
301,10289
307,10290
311,10291
315,10292
319,10293
324,10294
328,10295
330,10296
331,10297
331,10298
329,10299
324,10300
320,10301
317,10302
317,10303
319,10304
322,10305
324,10306
327,10307
331,10308
332,10309
332,10310
331,10311
329,10312
326,10313
324,10314
322,10315
318,10316
315,10316
312,10317
312,10318
314,10319
317,10320
318,10321
318,10322
316,10323
314,10324
311,10326
307,10327
304,10328
303,10329
303,10330
302,10331
301,10332
301,10333
302,10334
305,10335
311,10336
313,10337
314,10338
314,10339
311,10340
308,10341
304,10342
301,10343
299,10344
300,10345
306,10346
313,10347
320,10348
324,10349
325,10350
324,10351
320,10352
316,10353
314,10354
314,10355
314,10356
314,10357
315,10358
317,10359
319,10360
322,10361
323,10362
322,10363
321,10364
319,10365
316,10366
315,10368
315,10368
313,10369
311,10370
311,10371
310,10372
309,10373
310,10374
313,10375
317,10376
321,10377
322,10378
323,10379
325,10380
331,10381
338,10382
343,10383
345,10384
343,10385
338,10386
330,10387
321,10388
317,10389
317,10390
318,10391
316,10392
313,10393
311,10394
308,10395
307,10396
308,10397
308,10398
311,10399
313,10400
314,10401
313,10402
311,10403
308,10404
304,10405
299,10406
295,10407
293,10408
293,10409
293,10411
293,10412
293,10413
294,10414
295,10415
298,10416
302,10417
304,10418
305,10419
304,10420
302,10420
301,10421
302,10422
303,10423
305,10424
311,10425
317,10426
325,10427
338,10428
348,10429
356,10430
359,10431
357,10432
350,10433
340,10434
330,10435
320,10436
311,10437
306,10438
305,10439
307,10440
309,10441
310,10442
310,10443
309,10444
307,10445
304,10446
303,10447
302,10448
303,10449
304,10450
307,10451
311,10452
314,10454
319,10455
323,10456
325,10457
324,10458
322,10459
319,10460
314,10461
310,10462
310,10463
312,10464
314,10465
318,10466
320,10467
320,10468
319,10469
318,10470
316,10471
308,10472
304,10472
304,10473
304,10474
306,10475
308,10476
308,10477
306,10478
302,10479
299,10480
299,10481
303,10482
306,10483
309,10484
311,10485
313,10486
315,10487
316,10488
318,10489
321,10490
326,10491
330,10492
331,10493
330,10494
330,10496
327,10497
323,10498
322,10499
321,10500
322,10501
320,10502
319,10503
317,10504
315,10505
314,10506
315,10507
314,10508
313,10509
311,10510
312,10511
313,10512
316,10513
320,10514
322,10515
323,10516
322,10517
320,10518
318,10519
317,10520
317,10521
314,10522
312,10523
312,10523
312,10524
311,10525
312,10526
311,10527
310,10528
309,10529
307,10530
304,10531
301,10532
299,10533
300,10534
302,10535
305,10536
308,10537
311,10539
313,10540
314,10541
311,10542
306,10543
303,10544
299,10545
300,10546
303,10547
309,10548
319,10549
329,10550
337,10551
343,10552
347,10553
348,10554
343,10555
336,10556
328,10557
325,10558
322,10559
318,10560
314,10561
314,10562
317,10563
320,10564
323,10565
324,10566
323,10567
322,10568
323,10569
325,10570
325,10571
324,10572
322,10573
318,10574
311,10575
306,10576
305,10576
306,10577
306,10578
306,10579
306,10580
305,10582
303,10583
301,10584
303,10585
308,10586
315,10587
320,10588
321,10589
319,10590
317,10591
315,10592
313,10593
311,10594
311,10595
311,10596
310,10597
310,10598
311,10599
311,10600
309,10601
306,10602
303,10603
300,10604
297,10605
296,10606
297,10607
298,10608
298,10609
298,10610
299,10611
301,10612
305,10613
307,10614
308,10615
307,10616
306,10617
305,10618
309,10619
320,10620
330,10621
338,10622
346,10624
349,10625
349,10626
342,10627
333,10628
325,10628
318,10629
315,10630
314,10631
315,10632
318,10633
320,10634
323,10635
323,10636
320,10637
317,10638
315,10639
315,10640
314,10641
312,10642
311,10643
309,10644
307,10645
305,10646
302,10647
302,10648
303,10649
307,10650
311,10651
314,10652
315,10653
314,10654
312,10655
315,10656
322,10657
328,10658
335,10659
340,10660
341,10661
335,10662
326,10663
317,10664
310,10665
309,10667
310,10668
313,10669
317,10670
317,10671
316,10672
311,10673
306,10674
304,10675
302,10676
301,10677
300,10678
298,10679
298,10680
298,10680
298,10681
299,10682
301,10683
303,10684
305,10685
308,10686
314,10687
322,10688
331,10689
338,10690
343,10691
345,10692
346,10693
343,10694
338,10695
334,10696
333,10697
331,10698
327,10699
324,10700
322,10701
323,10702
322,10703
320,10704
318,10705
316,10706
314,10707
312,10708
312,10710
311,10711
312,10712
312,10713
312,10714
310,10715
307,10716
305,10717
303,10718
303,10719
305,10720
310,10721
313,10722
315,10723
315,10724
315,10725
311,10726
305,10727
301,10728
300,10729
304,10730
312,10731
319,10731
323,10732
325,10733
325,10734
324,10735
320,10736
315,10737
310,10738
309,10739
311,10740
316,10741
320,10742
323,10743
323,10744
322,10745
321,10746
319,10747
318,10748
314,10749
309,10750
306,10752
306,10753
306,10754
310,10755
318,10756
327,10757
334,10758
338,10759
338,10760
336,10761
337,10762
338,10763
338,10764
335,10765
335,10766
334,10767
328,10768
320,10769
315,10770
310,10771
305,10772
303,10773
302,10774
303,10775
305,10776
306,10777
308,10778
311,10779
311,10780
309,10781
306,10782
304,10783
301,10783
299,10784
299,10785
302,10786
305,10787
308,10788
309,10789
307,10790
306,10791
307,10792
309,10793
309,10795
309,10796
308,10797
307,10798
305,10799
304,10800
303,10801
304,10802
306,10803
312,10804
319,10805
323,10806
326,10807
330,10808
334,10809
333,10810
331,10811
330,10812
331,10813
334,10814
336,10815
335,10816
333,10817
330,10818
327,10819
322,10820
316,10821
312,10822
307,10823
304,10824
305,10825
309,10826
313,10827
315,10828
317,10829
318,10830
318,10831
317,10832
315,10833
311,10834
308,10834
308,10835
309,10836
310,10838
314,10839
319,10840
322,10841
324,10842
322,10843
318,10844
311,10845
303,10846
298,10847
297,10848
300,10849
303,10850
306,10851
309,10852
311,10853
311,10854
310,10855
308,10856
308,10857
310,10858
314,10859
321,10860
330,10861
337,10862
339,10863
339,10864
336,10865
331,10866
325,10867
316,10868
311,10869
309,10870
312,10871
318,10872
326,10873
336,10874
341,10875
341,10876
337,10877
332,10878
326,10880
319,10881
316,10882
316,10883
315,10884
313,10885
311,10886
309,10886
307,10887
307,10888
306,10889
305,10890
303,10891
302,10892
303,10893
305,10894
311,10895
320,10896
325,10897
327,10898
329,10899
325,10900
318,10901
311,10902
306,10903
302,10904
302,10905
306,10906
310,10907
314,10908
318,10909
323,10910
325,10911
324,10912
323,10913
324,10914
324,10915
322,10916
319,10917
315,10918
311,10919
307,10920
304,10921
301,10923
299,10924
298,10925
297,10926
299,10927
300,10928
301,10929
304,10930
308,10931
312,10932
317,10933
319,10934
319,10935
317,10936
313,10937
309,10938
310,10938
316,10939
322,10940
328,10941
335,10942
341,10943
341,10944
340,10945
336,10946
330,10947
322,10948
318,10949
318,10950
321,10951
327,10952
332,10953
336,10954
337,10955
333,10956
328,10957
321,10958
313,10959
305,10960
302,10961
302,10962
303,10963
303,10964
303,10966
304,10967
308,10968
312,10969
316,10970
319,10971
320,10972
319,10973
314,10974
307,10975
300,10976
295,10977
293,10978
291,10979
290,10980
291,10981
293,10982
298,10983
304,10984
309,10985
315,10986
321,10987
325,10988
329,10989
332,10989
334,10990
335,10991
332,10992
329,10993
325,10994
317,10995
307,10996
300,10997
295,10998
294,10999
296,11000
303,11001
307,11002
311,11003
313,11004
313,11005
312,11006
310,11008
306,11009
303,11010
301,11011
303,11012
305,11013
309,11014
314,11015
319,11016
323,11017
326,11018
327,11019
326,11020
328,11021
333,11022
340,11023
346,11024
351,11025
351,11026
347,11027
340,11028
331,11029
322,11030
318,11031
319,11032
319,11033
320,11034
322,11035
323,11036
322,11037
320,11038
316,11039
312,11040
310,11041
310,11041
313,11042
316,11043
321,11044
323,11045
322,11046
319,11047
314,11048
306,11049
299,11051
295,11052
293,11053
298,11054
304,11055
311,11056
316,11057
318,11058
317,11059
312,11060
304,11061
299,11062
296,11063
295,11064
296,11065
300,11066
305,11067
313,11068
323,11069
331,11070
337,11071
340,11072
343,11073
342,11074
338,11075
337,11076
334,11077
331,11078
327,11079
324,11080
321,11081
324,11082
331,11083
337,11084
341,11085
343,11086
343,11087
338,11088
333,11089
331,11090
329,11091
328,11092
328,11092
328,11094
327,11095
324,11096
323,11097
322,11098
322,11099
327,11100
332,11101
334,11102
331,11103
326,11104
324,11105
323,11106
324,11107
323,11108
319,11109
319,11110
321,11111
325,11112
330,11113
337,11114
340,11115
338,11116
331,11117
324,11118
313,11119
303,11120
295,11121
291,11122
287,11123
286,11124
288,11125
293,11126
297,11127
300,11128
300,11129
298,11130
296,11131
294,11132
296,11133
298,11134
303,11136
308,11137
312,11138
314,11139
314,11140
313,11141
314,11142
316,11143
320,11144
322,11145
322,11145
318,11146
316,11147
320,11148
324,11149
327,11150
325,11151
317,11152
309,11153
303,11154
298,11155
297,11156
298,11157
297,11158
296,11159
294,11160
293,11161
293,11162
297,11163
303,11164
310,11165
315,11166
318,11167
320,11168
320,11169
323,11170
324,11171
323,11172
321,11173
316,11174
310,11175
304,11176
300,11177
297,11179
295,11180
293,11181
294,11182
298,11183
301,11184
305,11185
310,11186
313,11187
314,11188
314,11189
313,11190
313,11191
310,11192
309,11193
307,11194
305,11195
305,11196
308,11196
310,11197
311,11198
311,11199
310,11200
308,11201
308,11202
309,11203
308,11204
309,11205
309,11206
307,11207
303,11208
298,11209
294,11210
295,11211
302,11212
308,11213
315,11214
321,11215
325,11216
325,11217
325,11218
326,11219
328,11220
332,11222
333,11223
331,11224
329,11225
326,11226
325,11227
326,11228
326,11229
320,11230
313,11231
305,11232
298,11233
294,11234
293,11235
293,11236
294,11237
296,11238
298,11239
303,11240
310,11241
319,11242
324,11243
326,11244
323,11245
318,11246
313,11247
310,11248
306,11248
303,11249
302,11250
302,11251
302,11252
303,11253
304,11254
305,11255
311,11256
318,11257
321,11258
321,11259
319,11260
313,11261
306,11262
303,11264
305,11265
305,11266
306,11267
307,11268
306,11269
305,11270
303,11271
301,11272
301,11273
304,11274
308,11275
312,11276
316,11277
320,11278
320,11279
319,11280
319,11281
319,11282
320,11283
321,11284
322,11285
321,11286
318,11287
313,11288
306,11289
301,11290
296,11291
289,11292
283,11293
281,11294
281,11295
283,11296
284,11297
285,11298
286,11299
284,11299
284,11300
286,11301
290,11302
294,11303
299,11304
304,11305
305,11307
305,11308
303,11309
303,11310
306,11311
314,11312
323,11313
328,11314
329,11315
327,11316
326,11317
322,11318
318,11319
317,11320
317,11321
316,11322
314,11323
310,11324
306,11325
303,11326
300,11327
295,11328
292,11329
293,11330
295,11331
298,11332
299,11333
297,11334
295,11335
294,11336
296,11337
298,11338
299,11339
301,11340
304,11341
305,11342
303,11343
302,11344
302,11345
303,11346
305,11347
309,11348
313,11350
319,11351
326,11352
335,11352
340,11353
337,11354
329,11355
320,11356
310,11357
304,11358
304,11359
304,11360
303,11361
301,11362
300,11363
300,11364
302,11365
305,11366
305,11367
305,11368
304,11369
302,11370
299,11371
297,11372
296,11373
296,11374
298,11375
301,11376
303,11377
304,11378
306,11379
309,11380
313,11381
323,11382
335,11383
344,11384
353,11385
358,11386
357,11387
352,11388
342,11389
331,11390
321,11392
311,11393
304,11394
297,11395
292,11396
291,11397
296,11398
304,11399
314,11400
320,11401
320,11402
317,11403
310,11403
307,11404
307,11405
307,11406
307,11407
306,11408
305,11409
301,11410
297,11411
295,11412
295,11413
298,11414
301,11415
303,11416
306,11417
308,11418
312,11419
321,11420
331,11421
338,11422
341,11423
341,11424
338,11425
331,11426
324,11427
317,11428
313,11429
312,11430
312,11431
311,11432
308,11433
304,11435
303,11436
303,11437
307,11438
312,11439
315,11440
318,11441
318,11442
316,11443
314,11444
314,11445
313,11446
313,11447
312,11448
309,11449
304,11450
301,11451
301,11452
301,11453
304,11454
307,11454
311,11455
313,11456
313,11457
313,11458
314,11459
319,11460
328,11461
338,11462
345,11463
347,11464
343,11465
334,11466
323,11467
314,11468
309,11469
307,11470
305,11471
301,11472
296,11473
293,11474
290,11475
293,11476
300,11478
309,11479
319,11480
326,11481
329,11482
328,11483
322,11484
314,11485
307,11486
304,11487
300,11488
297,11489
294,11490
292,11491
291,11492
291,11493
292,11494
293,11495
297,11496
305,11497
311,11498
314,11499
315,11500
313,11501
311,11502
310,11503
309,11504
309,11505
309,11506
312,11506
315,11507
319,11508
323,11509
323,11510
323,11511
322,11512
323,11513
325,11514
328,11515
331,11516
331,11517
331,11518
326,11520
320,11521
315,11522
311,11523
310,11524
308,11525
306,11526
302,11527
299,11528
299,11529
301,11530
303,11531
306,11532
308,11533
310,11534
310,11535
309,11536
308,11537
306,11538
307,11539
307,11540
305,11541
302,11542
299,11543
300,11544
301,11545
303,11546
306,11547
310,11548
312,11549
309,11550
304,11551
301,11552
302,11553
309,11554
317,11555
324,11556
328,11557
331,11557
330,11558
327,11559
323,11560
318,11561
315,11563
313,11564
311,11565
309,11566
309,11567
314,11568
320,11569
327,11570
331,11571
330,11572
327,11573
323,11574
320,11575
320,11576
321,11577
319,11578
313,11579
307,11580
303,11581
300,11582
298,11583
298,11584
299,11585
304,11586
312,11587
319,11588
324,11589
327,11590
326,11591
321,11592
316,11593
313,11594
308,11595
305,11596
302,11597
301,11598
303,11599
310,11600
317,11601
322,11602
324,11603
324,11604
323,11606
321,11607
318,11608
315,11609
312,11610
309,11610
306,11611
306,11612
308,11613
310,11614
310,11615
313,11616
315,11617
318,11618
320,11619
325,11620
328,11621
326,11622
322,11623
314,11624
307,11625
302,11626
300,11627
295,11628
292,11629
292,11630
292,11631
294,11632
296,11633
298,11634
299,11635
301,11636
304,11637
308,11638
312,11639
315,11640
315,11641
314,11642
310,11643
305,11644
303,11645
302,11646
306,11648
312,11649
318,11650
324,11651
328,11652
329,11653
330,11654
330,11655
333,11656
338,11657
341,11658
343,11659
345,11660
348,11661
345,11661
337,11662
331,11663
326,11664
323,11665
322,11666
322,11667
319,11668
313,11669
307,11670
301,11671
297,11672
295,11673
294,11674
295,11675
296,11676
299,11677
302,11678
306,11679
307,11680
308,11681
306,11682
305,11683
306,11684
307,11685
308,11686
308,11687
310,11688
311,11689
311,11691
312,11692
312,11693
312,11694
312,11695
312,11696
313,11697
315,11698
315,11699
317,11700
321,11701
324,11702
329,11703
333,11704
333,11705
329,11706
321,11707
314,11708
313,11709
317,11710
322,11711
325,11712
324,11712
322,11713
319,11714
313,11715
307,11716
304,11717
303,11718
302,11719
303,11720
306,11721
310,11722
313,11723
316,11724
319,11725
322,11726
324,11727
324,11728
326,11729
329,11730
330,11731
329,11732
327,11734
324,11735
319,11736
309,11737
299,11738
291,11739
288,11740
290,11741
293,11742
297,11743
304,11744
313,11745
320,11746
323,11747
322,11748
322,11749
323,11750
323,11751
323,11752
322,11753
319,11754
315,11755
311,11756
309,11757
309,11758
309,11759
309,11760
308,11761
306,11762
305,11763
305,11764
306,11764
308,11765
311,11766
313,11767
313,11768
316,11769
318,11770
320,11771
322,11772
323,11773
324,11774
322,11776
318,11777
313,11778
312,11779
317,11780
321,11781
323,11782
323,11783
322,11784
322,11785
320,11786
319,11787
319,11788
319,11789
319,11790
317,11791
316,11792
314,11793
316,11794
318,11795
319,11796
316,11797
311,11798
311,11799
317,11800
325,11801
330,11802
333,11803
333,11804
329,11805
324,11806
318,11807
313,11808
311,11809
311,11810
309,11811
306,11812
303,11813
300,11814
299,11815
301,11815
305,11816
306,11817
308,11819
311,11820
314,11821
317,11822
320,11823
323,11824
326,11825
329,11826
332,11827
334,11828
332,11829
329,11830
326,11831
322,11832
318,11833
315,11834
315,11835
319,11836
323,11837
325,11838
326,11839
326,11840
325,11841
328,11842
330,11843
330,11844
329,11845
326,11846
321,11847
314,11848
307,11849
302,11850
304,11851
310,11852
318,11853
325,11854
329,11855
330,11856
327,11857
319,11858
310,11859
305,11860
302,11862
299,11863
297,11864
295,11865
295,11866
295,11867
299,11868
304,11868
307,11869
310,11870
313,11871
315,11872
316,11873
317,11874
317,11875
313,11876
308,11877
304,11878
301,11879
298,11880
297,11881
298,11882
301,11883
307,11884
314,11885
319,11886
323,11887
325,11888
325,11889
321,11890
318,11891
317,11892
320,11893
325,11894
328,11895
330,11896
329,11897
324,11898
320,11899
320,11900
325,11901
331,11902
338,11904
342,11905
343,11906
340,11907
334,11908
326,11909
322,11910
317,11911
315,11912
311,11913
307,11914
303,11915
297,11916
292,11917
288,11918
285,11919
287,11919
289,11920
292,11921
295,11922
297,11923
299,11924
300,11925
301,11926
304,11927
310,11928
317,11929
326,11930
334,11931
336,11932
337,11933
336,11934
332,11935
334,11936
340,11937
348,11938
351,11939
348,11940
343,11941
338,11942
333,11943
328,11944
325,11945
322,11947
319,11948
317,11949
316,11950
315,11951
316,11952
317,11953
318,11954
321,11955
323,11956
321,11957
318,11958
313,11959
309,11960
307,11961
307,11962
310,11963
313,11964
316,11965
319,11966
320,11967
319,11968
316,11969
313,11970
311,11970
309,11971
309,11972
308,11973
310,11974
314,11975
316,11976
314,11977
308,11978
303,11979
299,11980
299,11981
298,11982
296,11983
298,11984
302,11985
306,11986
312,11987
319,11988
322,11990
323,11991
322,11992
320,11993
318,11994
315,11995
315,11996
318,11997
324,11998
333,11999
339,12000
343,12001
345,12002
345,12003
338,12004
326,12005
314,12006
304,12007
300,12008
298,12009
298,12010
302,12011
306,12012
312,12013
317,12014
321,12015
324,12016
324,12017
324,12018
323,12019
320,12020
318,12021
316,12022
313,12022
311,12023
308,12024
306,12025
305,12026
307,12027
310,12028
312,12029
312,12030
314,12032
319,12033
324,12034
331,12035
333,12036
332,12037
330,12038
326,12039
321,12040
319,12041
316,12042
311,12043
308,12044
307,12045
306,12046
306,12047
306,12048
308,12049
311,12050
316,12051
322,12052
323,12053
321,12054
318,12055
313,12056
309,12057
309,12058
308,12059
307,12060
306,12061
304,12062
305,12063
309,12064
312,12065
315,12066
316,12067
316,12068
314,12069
314,12070
317,12071
326,12072
333,12073
336,12073
337,12075
337,12076
337,12077
338,12078
336,12079
335,12080
332,12081
328,12082
325,12083
322,12084
319,12085
317,12086
318,12087
318,12088
316,12089
312,12090
310,12091
312,12092
315,12093
316,12094
315,12095
315,12096
313,12097
310,12098
305,12099
303,12100
304,12101
306,12102
309,12103
313,12104
317,12105
323,12106
327,12107
328,12108
329,12109
334,12110
339,12111
341,12112
339,12113
336,12114
330,12115
324,12116
318,12118
313,12119
310,12120
307,12121
305,12122
306,12123
306,12124
305,12125
306,12126
307,12126
308,12127
310,12128
312,12129
313,12130
313,12131
313,12132
313,12133
313,12134
312,12135
309,12136
305,12137
304,12138
305,12139
310,12140
314,12141
316,12142
319,12143
319,12144
315,12145
311,12146
309,12147
310,12148
314,12149
316,12150
318,12151
321,12152
322,12153
319,12154
315,12155
310,12156
305,12157
303,12158
302,12160
303,12161
305,12162
308,12163
311,12164
311,12165
311,12166
310,12167
308,12168
305,12169
303,12170
300,12171
298,12172
301,12173
304,12174
308,12175
314,12176
319,12177
322,12177
325,12178
327,12179
327,12180
324,12181
322,12182
320,12183
319,12184
320,12185
322,12186
325,12187
327,12188
326,12189
323,12190
319,12191
315,12192
313,12193
310,12194
311,12195
314,12196
317,12197
317,12198
318,12199
316,12200
315,12201
313,12203
312,12204
312,12205
315,12206
316,12207
319,12208
324,12209
329,12210
331,12211
332,12212
333,12213
336,12214
339,12215
339,12216
337,12217
337,12218
333,12219
325,12220
315,12221
305,12222
298,12223
294,12224
291,12225
290,12226
291,12227
292,12228
294,12228
294,12229
294,12230
294,12231
293,12232
295,12233
298,12234
301,12235
302,12236
303,12237
303,12238
304,12239
304,12240
305,12241
312,12242
320,12243
327,12244
332,12246
333,12247
331,12248
326,12249
320,12250
315,12251
316,12252
326,12253
335,12254
344,12255
351,12256
354,12257
350,12258
339,12259
328,12260
318,12261
314,12262
311,12263
308,12264
303,12265
298,12266
295,12267
293,12268
292,12269
292,12270
294,12271
295,12272
298,12273
300,12274
303,12275
305,12276
308,12277
313,12278
320,12279
330,12280
338,12280
344,12281
345,12282
341,12283
335,12284
325,12285
318,12286
315,12288
318,12289
324,12290
325,12291
325,12292
323,12293
320,12294
316,12295
312,12296
