
312,513
312,514
312,515
312,516
312,517
311,518
312,519
312,520
312,521
312,522
312,523
312,524
312,525
313,526
313,527
313,528
313,529
313,530
313,531
312,532
312,533
312,534
312,535
312,536
312,537
312,538
312,539
312,540
312,541
312,542
312,543
313,543
313,544
313,545
313,546
313,547
313,548
313,549
313,550
313,551
313,552
312,553
312,555
312,556
312,557
312,558
312,559
312,560
312,561
312,562
312,563
313,564
313,565
313,566
313,567
313,568
313,569
313,570
313,571
312,572
312,573
312,574
312,575
312,576
312,577
312,578
312,579
312,580
312,581
312,582
313,583
313,584
313,585
313,586
313,587
313,588
313,589
313,590
313,591
313,592
312,593
312,594
312,594
312,595
312,596
312,598
312,599
312,600
312,601
312,602
313,603
313,604
313,605
314,606
314,607
313,608
313,609
313,610
313,611
313,612
312,613
312,614
312,615
312,616
312,617
312,618
312,619
312,620
312,621
313,622
313,623
313,624
313,625
313,626
313,627
313,628
313,629
313,630
313,631
312,632
312,633
312,634
311,635
311,636
311,637
311,638
311,640
312,641
312,642
312,643
312,644
313,645
313,646
313,647
313,648
313,648
313,649
313,650
313,651
313,652
313,653
313,654
312,655
312,656
312,657
312,658
312,659
312,660
312,661
313,662
313,663
313,664
313,665
313,666
313,667
314,668
314,669
314,670
314,671
313,672
313,673
313,674
313,675
313,676
313,677
313,678
313,679
313,680
313,681
313,683
314,684
314,685
314,686
314,687
314,688
314,689
314,690
314,691
314,692
314,693
313,694
313,695
313,696
313,697
313,698
313,699
313,700
313,700
313,701
314,702
314,703
314,704
314,705
314,706
315,707
314,708
314,709
314,710
314,711
314,712
314,713
314,714
313,715
313,716
313,717
313,718
313,719
314,720
314,721
314,722
314,723
314,724
314,726
314,727
315,728
315,729
315,730
314,731
314,732
314,733
314,734
314,735
313,736
313,737
313,738
313,739
313,740
313,741
314,742
314,743
314,744
314,745
314,746
315,747
315,748
314,749
315,750
314,751
314,752
314,752
314,753
314,754
314,755
314,756
313,757
314,758
314,759
314,760
314,761
314,762
315,763
315,764
315,765
315,766
315,768
315,769
315,770
315,771
315,772
315,773
314,774
314,775
314,776
314,777
314,778
314,779
315,780
315,781
315,782
315,783
315,784
315,785
315,786
315,787
315,788
315,789
315,790
315,791
315,792
315,793
315,794
315,795
314,796
314,797
314,798
314,799
314,800
314,801
315,802
315,803
315,803
315,804
315,805
315,806
316,807
315,808
315,809
315,811
315,812
315,813
314,814
314,815
314,816
314,817
314,818
314,819
314,820
314,821
314,822
314,823
315,824
314,825
315,826
315,827
315,828
315,829
314,830
315,831
314,832
314,833
314,834
314,835
314,836
313,837
313,838
313,839
314,840
314,841
314,842
314,843
314,844
314,845
314,846
314,847
314,848
314,849
314,850
314,851
314,852
313,854
313,855
313,856
313,857
313,857
313,858
313,859
313,860
313,861
313,862
313,863
313,864
313,865
313,866
313,867
313,868
313,869
313,870
313,871
313,872
313,873
312,874
312,875
312,876
312,877
312,878
311,879
311,880
312,881
311,882
312,883
312,884
312,885
312,886
312,887
312,888
312,889
312,890
312,891
312,892
312,893
312,894
311,896
311,897
311,898
311,899
311,900
311,901
311,902
311,903
312,904
312,905
312,906
312,907
312,908
312,909
312,910
312,910
312,911
312,912
311,913
311,914
311,915
311,916
311,917
311,918
311,919
311,920
311,921
311,922
311,923
311,924
311,925
312,926
312,927
312,928
312,929
311,930
311,931
311,932
311,933
311,934
310,935
310,936
310,937
310,939
310,940
310,941
310,942
311,943
310,944
311,945
311,946
311,947
311,948
311,949
311,950
311,951
311,952
311,953
311,954
311,955
310,956
310,957
310,958
310,959
310,960
310,961
311,961
311,962
311,963
311,964
311,965
311,966
311,967
311,968
311,969
311,970
311,971
311,972
311,973
311,974
310,975
310,976
310,977
310,978
310,979
310,980
310,982
310,983
310,984
310,985
311,986
311,987
311,988
311,989
311,990
311,991
311,992
311,993
310,994
310,995
310,996
310,997
310,998
310,999
310,1000
310,1001
310,1002
310,1003
311,1004
311,1005
311,1006
311,1007
311,1008
311,1009
311,1010
311,1011
311,1012
311,1013
310,1013
310,1014
310,1015
310,1016
310,1017
310,1018
310,1019
311,1020
310,1021
311,1022
311,1024
311,1025
311,1026
311,1027
311,1028
311,1029
311,1030
311,1031
311,1032
311,1033
311,1034
310,1035
310,1036
310,1037
310,1038
310,1039
310,1040
310,1041
311,1042
311,1043
311,1044
311,1045
311,1046
312,1047
312,1048
312,1049
312,1050
312,1051
312,1052
311,1053
311,1054
311,1055
311,1056
311,1057
311,1058
311,1059
311,1060
311,1061
312,1062
311,1063
312,1064
312,1064
312,1065
312,1067
312,1068
312,1069
312,1070
312,1071
312,1072
312,1073
312,1074
311,1075
311,1076
311,1077
311,1078
311,1079
311,1080
311,1081
311,1082
312,1083
312,1084
312,1085
312,1086
312,1087
312,1088
312,1089
312,1090
312,1091
312,1092
312,1093
312,1094
312,1095
311,1096
311,1097
311,1098
311,1099
311,1100
312,1101
312,1102
312,1103
312,1104
312,1105
313,1106
313,1107
313,1108
313,1110
313,1111
313,1112
313,1113
313,1114
313,1115
312,1116
312,1116
312,1117
312,1118
312,1119
312,1120
312,1121
313,1122
313,1123
313,1124
313,1125
313,1126
313,1127
313,1128
313,1129
313,1130
313,1131
313,1132
313,1133
312,1134
312,1135
313,1136
312,1137
313,1138
312,1139
312,1140
313,1141
313,1142
313,1143
313,1144
313,1145
313,1146
313,1147
313,1148
313,1149
313,1150
313,1152
313,1153
313,1154
313,1155
313,1156
313,1157
313,1158
313,1159
313,1160
313,1161
313,1162
313,1163
313,1164
313,1165
313,1166
313,1167
313,1168
313,1168
313,1169
313,1170
313,1171
313,1172
312,1173
312,1174
312,1175
312,1176
312,1177
312,1178
312,1179
312,1180
312,1181
313,1182
313,1183
313,1184
313,1185
313,1186
313,1187
313,1188
314,1189
314,1190
314,1191
314,1192
313,1193
313,1195
313,1196
313,1197
313,1198
313,1199
313,1200
313,1201
313,1202
313,1203
313,1204
313,1205
313,1206
314,1207
314,1208
314,1209
314,1210
314,1211
314,1212
314,1213
314,1214
313,1215
313,1216
313,1217
313,1218
313,1219
313,1219
313,1220
313,1221
313,1222
313,1223
314,1224
314,1225
314,1226
314,1227
314,1228
314,1229
314,1230
314,1231
313,1232
313,1233
313,1234
313,1235
313,1236
313,1238
313,1239
313,1240
313,1241
313,1242
313,1243
313,1244
313,1245
314,1246
314,1247
314,1248
314,1249
314,1250
314,1251
314,1252
313,1253
313,1254
313,1255
313,1256
313,1257
313,1258
313,1259
313,1260
313,1261
313,1262
313,1263
313,1264
314,1265
313,1266
314,1267
314,1268
314,1269
314,1270
314,1271
314,1271
313,1272
313,1273
313,1274
313,1275
313,1276
313,1277
313,1278
313,1280
313,1281
313,1282
313,1283
313,1284
314,1285
314,1286
314,1287
314,1288
314,1289
314,1290
314,1291
314,1292
314,1293
314,1294
314,1295
314,1296
314,1297
313,1298
313,1299
313,1300
313,1301
313,1302
314,1303
313,1304
313,1305
314,1306
314,1307
314,1308
314,1309
314,1310
314,1311
314,1312
314,1313
314,1314
314,1315
314,1316
314,1317
314,1318
314,1319
313,1320
314,1321
314,1323
314,1323
314,1324
314,1325
314,1326
314,1327
314,1328
314,1329
314,1330
314,1331
314,1332
314,1333
314,1334
314,1335
314,1336
314,1337
314,1338
314,1339
314,1340
313,1341
314,1342
314,1343
314,1344
314,1345
314,1346
314,1347
314,1348
314,1349
314,1350
314,1351
314,1352
314,1353
314,1354
314,1355
313,1356
314,1357
314,1358
313,1359
313,1360
313,1361
313,1362
313,1363
313,1364
314,1366
314,1367
314,1368
314,1369
314,1370
314,1371
314,1372
314,1373
314,1374
314,1375
314,1375
314,1376
314,1377
313,1378
314,1379
314,1380
313,1381
314,1382
314,1383
314,1384
313,1385
313,1386
314,1387
314,1388
314,1389
314,1390
314,1391
314,1392
313,1393
314,1394
313,1395
313,1396
313,1397
313,1398
313,1399
313,1400
313,1401
313,1402
313,1403
313,1404
314,1405
314,1406
314,1408
314,1409
314,1410
314,1411
314,1412
314,1413
314,1414
314,1415
314,1416
314,1417
313,1418
313,1419
313,1420
313,1421
313,1422
313,1423
313,1424
314,1425
314,1426
314,1426
314,1427
314,1428
314,1429
314,1430
314,1431
314,1432
314,1433
314,1434
314,1435
314,1436
314,1437
314,1438
314,1439
314,1440
314,1441
314,1442
314,1443
314,1444
314,1445
315,1446
314,1447
314,1448
314,1449
314,1451
314,1452
314,1453
314,1454
314,1455
314,1456
314,1457
314,1458
314,1459
314,1460
314,1461
314,1462
314,1463
314,1464
314,1465
314,1466
314,1467
314,1468
314,1469
314,1470
315,1471
314,1472
314,1473
314,1474
314,1475
314,1476
314,1477
314,1478
314,1478
314,1479
314,1480
314,1481
314,1482
314,1483
314,1484
314,1485
314,1486
314,1487
314,1488
314,1489
314,1490
314,1491
315,1492
314,1494
314,1495
315,1496
314,1497
314,1498
314,1499
314,1500
314,1501
314,1502
314,1503
314,1504
314,1505
315,1506
315,1507
315,1508
315,1509
315,1510
315,1511
315,1512
315,1513
315,1514
315,1515
315,1516
315,1517
314,1518
314,1519
314,1520
314,1521
314,1522
314,1523
315,1524
315,1525
315,1526
315,1527
315,1528
315,1529
315,1529
315,1530
315,1531
315,1532
315,1533
315,1534
315,1536
315,1537
315,1538
315,1539
315,1540
315,1541
315,1542
315,1543
315,1544
315,1545
315,1546
315,1547
315,1548
316,1549
316,1550
316,1551
316,1552
316,1553
316,1554
315,1555
316,1556
315,1557
315,1558
315,1559
315,1560
315,1561
315,1562
315,1563
315,1564
315,1565
315,1566
316,1567
315,1568
315,1569
315,1570
315,1571
315,1572
315,1573
315,1574
315,1575
315,1576
315,1577
315,1579
315,1580
315,1581
315,1581
315,1582
315,1583
315,1584
315,1585
315,1586
315,1587
315,1588
315,1589
315,1590
315,1591
315,1592
315,1593
315,1594
315,1595
315,1596
316,1597
315,1598
315,1599
315,1600
315,1601
315,1602
315,1603
315,1604
315,1605
315,1606
315,1607
315,1608
316,1609
315,1610
316,1611
316,1612
316,1613
316,1614
316,1615
316,1616
316,1617
315,1618
316,1619
316,1620
315,1622
315,1623
316,1624
316,1625
316,1626
315,1627
316,1628
316,1629
316,1630
316,1631
316,1632
316,1633
316,1633
315,1634
315,1635
315,1636
315,1637
315,1638
315,1639
315,1640
315,1641
315,1642
315,1643
315,1644
316,1645
316,1646
316,1647
316,1648
316,1649
316,1650
316,1651
316,1652
316,1653
315,1654
315,1655
315,1656
315,1657
315,1658
315,1659
315,1660
315,1661
314,1662
315,1664
315,1665
315,1666
315,1667
315,1668
315,1669
315,1670
315,1671
315,1672
315,1673
315,1674
315,1675
315,1676
315,1677
315,1678
315,1679
315,1680
315,1681
315,1682
314,1683
315,1684
315,1684
315,1685
315,1686
315,1687
315,1688
315,1689
315,1690
315,1691
315,1692
315,1693
315,1694
315,1695
315,1696
315,1697
314,1698
315,1699
314,1700
314,1701
314,1702
314,1703
314,1704
315,1705
314,1707
315,1708
314,1709
314,1710
314,1711
314,1712
314,1713
314,1714
314,1715
314,1716
314,1717
314,1718
314,1719
314,1720
313,1721
314,1722
313,1723
314,1724
313,1725
314,1726
314,1727
314,1728
313,1729
313,1730
313,1731
314,1732
313,1733
314,1734
313,1735
313,1736
313,1736
313,1737
313,1738
313,1739
313,1740
313,1741
313,1742
313,1743
313,1744
313,1745
313,1746
314,1747
314,1748
314,1750
313,1751
314,1752
313,1753
313,1754
314,1755
313,1756
313,1757
313,1758
313,1759
313,1760
313,1761
313,1762
313,1763
313,1764
313,1765
314,1766
314,1767
314,1768
314,1769
314,1770
314,1771
313,1772
314,1773
313,1774
313,1775
313,1776
313,1777
313,1778
313,1779
313,1780
313,1781
313,1782
313,1783
313,1784
313,1785
313,1786
313,1787
314,1787
314,1788
313,1789
314,1790
313,1792
313,1793
313,1794
313,1795
313,1796
313,1797
313,1798
313,1799
313,1800
313,1801
313,1802
313,1803
313,1804
313,1805
313,1806
313,1807
313,1808
313,1809
313,1810
313,1811
313,1812
313,1813
313,1814
313,1815
313,1816
313,1817
313,1818
313,1819
313,1820
312,1821
313,1822
313,1823
313,1824
313,1825
313,1826
313,1827
313,1828
313,1829
313,1830
313,1831
313,1832
313,1833
313,1835
313,1836
313,1837
312,1838
313,1839
312,1839
312,1840
312,1841
312,1842
312,1843
312,1844
313,1845
312,1846
313,1847
312,1848
313,1849
313,1850
313,1851
312,1852
313,1853
313,1854
313,1855
312,1856
312,1857
312,1858
312,1859
313,1860
312,1861
312,1862
312,1863
312,1864
312,1865
312,1866
312,1867
313,1868
313,1869
313,1870
312,1871
313,1872
313,1873
313,1874
312,1875
312,1876
312,1878
312,1879
312,1880
312,1881
312,1882
312,1883
312,1884
312,1885
312,1886
312,1887
312,1888
312,1889
313,1890
312,1891
313,1891
313,1892
313,1893
312,1894
313,1895
312,1896
312,1897
313,1898
312,1899
312,1900
312,1901
312,1902
313,1903
312,1904
313,1905
313,1906
313,1907
313,1908
313,1909
313,1910
313,1911
313,1912
313,1913
313,1914
313,1915
313,1916
313,1917
313,1918
312,1920
312,1921
312,1922
312,1923
312,1924
312,1925
312,1926
312,1927
313,1928
313,1929
313,1930
313,1931
313,1932
313,1933
313,1934
313,1935
312,1936
313,1937
313,1938
313,1939
312,1940
312,1941
312,1942
312,1942
312,1943
313,1944
312,1945
313,1946
313,1947
313,1948
313,1949
313,1950
313,1951
313,1952
313,1953
313,1954
312,1955
312,1956
313,1957
312,1958
312,1959
313,1960
313,1961
313,1963
313,1964
313,1965
312,1966
313,1967
313,1968
313,1969
313,1970
313,1971
313,1972
313,1973
313,1974
313,1975
313,1976
313,1977
313,1978
313,1979
313,1980
313,1981
313,1982
313,1983
313,1984
313,1985
313,1986
313,1987
314,1988
313,1989
313,1990
314,1991
314,1992
314,1993
314,1994
314,1994
314,1995
313,1996
313,1997
313,1998
313,1999
313,2000
313,2001
313,2002
313,2003
313,2004
313,2006
313,2007
314,2008
314,2009
314,2010
314,2011
314,2012
314,2013
314,2014
314,2015
314,2016
314,2017
313,2018
314,2019
314,2020
314,2021
313,2022
314,2023
313,2024
313,2025
314,2026
314,2027
314,2028
314,2029
314,2030
314,2031
314,2032
314,2033
314,2034
314,2035
314,2036
314,2037
314,2038
314,2039
314,2040
314,2041
314,2042
314,2043
314,2044
314,2045
314,2045
314,2046
314,2048
314,2049
314,2050
314,2051
314,2052
314,2053
314,2054
314,2055
314,2056
314,2057
314,2058
314,2059
314,2060
314,2061
314,2062
314,2063
314,2064
314,2065
314,2066
314,2067
314,2068
314,2069
315,2070
314,2071
314,2072
315,2073
314,2074
314,2075
314,2076
314,2077
314,2078
313,2079
314,2080
314,2081
314,2082
314,2083
314,2084
314,2085
314,2086
314,2087
314,2088
314,2089
314,2091
314,2092
314,2093
314,2094
314,2095
314,2096
314,2097
314,2097
314,2098
314,2099
314,2100
314,2101
314,2102
314,2103
314,2104
314,2105
314,2106
314,2107
314,2108
314,2109
314,2110
314,2111
315,2112
314,2113
315,2114
314,2115
314,2116
315,2117
314,2118
314,2119
314,2120
314,2121
315,2122
315,2123
314,2124
315,2125
315,2126
314,2127
315,2128
315,2129
315,2130
315,2131
315,2132
315,2134
315,2135
315,2136
315,2137
314,2138
315,2139
315,2140
314,2141
315,2142
315,2143
315,2144
315,2145
315,2146
315,2147
315,2148
315,2149
315,2149
315,2150
315,2151
315,2152
315,2153
315,2154
315,2155
315,2156
315,2157
315,2158
315,2159
315,2160
315,2161
315,2162
315,2163
315,2164
315,2165
315,2166
315,2167
315,2168
315,2169
315,2170
315,2171
315,2172
315,2173
315,2174
315,2176
315,2177
315,2178
314,2179
314,2180
314,2181
315,2182
315,2183
314,2184
314,2185
314,2186
315,2187
314,2188
315,2189
315,2190
315,2191
315,2192
315,2193
315,2194
315,2195
314,2196
314,2197
314,2198
314,2199
314,2200
314,2200
314,2201
314,2202
314,2203
314,2204
314,2205
314,2206
314,2207
314,2208
314,2209
314,2210
314,2211
314,2212
314,2213
314,2214
314,2215
314,2216
314,2217
314,2219
314,2220
314,2221
314,2222
314,2223
314,2224
314,2225
314,2226
314,2227
314,2228
314,2229
314,2230
314,2231
314,2232
314,2233
314,2234
314,2235
314,2236
314,2237
314,2238
314,2239
314,2240
313,2241
313,2242
313,2243
313,2244
313,2245
313,2246
313,2247
313,2248
313,2249
313,2250
314,2251
314,2251
313,2252
313,2253
314,2254
313,2255
313,2256
313,2257
313,2258
314,2259
313,2260
314,2262
313,2263
313,2264
313,2265
314,2266
314,2267
314,2268
314,2269
314,2270
314,2271
314,2272
314,2273
314,2274
314,2275
314,2276
313,2277
314,2278
313,2279
313,2280
313,2281
313,2282
313,2283
313,2284
313,2285
313,2286
313,2287
313,2288
314,2289
314,2290
314,2291
313,2292
313,2293
313,2294
313,2295
313,2296
313,2297
313,2298
313,2299
313,2300
313,2301
313,2302
312,2304
313,2304
313,2305
313,2306
313,2307
313,2308
313,2309
313,2310
313,2311
313,2312
313,2313
313,2314
313,2315
313,2316
313,2317
313,2318
313,2319
313,2320
313,2321
313,2322
313,2323
313,2324
313,2325
313,2326
313,2327
314,2328
313,2329
313,2330
314,2331
313,2332
314,2333
314,2334
314,2335
313,2336
313,2337
313,2338
313,2339
313,2340
313,2341
313,2342
313,2343
313,2344
313,2345
313,2347
313,2348
313,2349
313,2350
314,2351
314,2352
314,2353
313,2354
313,2355
313,2355
313,2356
313,2357
313,2358
313,2359
313,2360
313,2361
313,2362
313,2363
313,2364
313,2365
313,2366
313,2367
313,2368
313,2369
313,2370
313,2371
313,2372
313,2373
313,2374
313,2375
313,2376
313,2377
313,2378
313,2379
313,2380
313,2381
313,2382
313,2383
314,2384
313,2385
314,2386
314,2387
314,2388
314,2390
314,2391
314,2392
314,2393
314,2394
313,2395
313,2396
313,2397
313,2398
313,2399
313,2400
313,2401
313,2402
313,2403
313,2404
313,2405
314,2406
313,2406
313,2407
314,2408
314,2409
314,2410
314,2411
314,2412
314,2413
314,2414
313,2415
313,2416
313,2417
313,2418
313,2419
313,2420
313,2421
313,2422
313,2423
313,2424
313,2425
313,2426
313,2427
313,2428
313,2429
313,2430
313,2432
313,2433
313,2434
313,2435
313,2436
313,2437
313,2438
313,2439
313,2440
313,2441
313,2442
313,2443
313,2444
313,2445
313,2446
313,2447
313,2448
313,2449
313,2450
313,2451
313,2452
313,2453
313,2454
313,2455
313,2456
313,2457
312,2458
313,2458
312,2459
313,2460
312,2461
313,2462
312,2463
313,2464
313,2465
313,2466
313,2467
313,2468
313,2469
313,2470
313,2471
313,2472
313,2473
313,2475
312,2476
312,2477
312,2478
312,2479
312,2480
311,2481
311,2482
311,2483
311,2484
312,2485
312,2486
312,2487
312,2488
312,2489
313,2490
313,2491
313,2492
313,2493
313,2494
313,2495
313,2496
313,2497
313,2498
313,2499
313,2500
312,2501
312,2502
312,2503
313,2504
313,2505
313,2506
312,2507
313,2508
313,2509
313,2509
313,2510
313,2511
313,2512
313,2513
313,2514
313,2515
313,2516
313,2518
313,2519
312,2520
312,2521
313,2522
313,2523
313,2524
313,2525
313,2526
313,2527
313,2528
313,2529
313,2530
313,2531
313,2532
313,2533
313,2534
313,2535
313,2536
313,2537
313,2538
313,2539
313,2540
313,2541
313,2542
313,2543
313,2544
313,2545
313,2546
313,2547
313,2548
313,2549
313,2550
313,2551
313,2552
313,2553
313,2554
313,2555
313,2556
313,2557
313,2558
313,2560
313,2561
313,2561
313,2562
313,2563
313,2564
313,2565
313,2566
313,2567
313,2568
313,2569
313,2570
313,2571
313,2572
313,2573
313,2574
313,2575
313,2576
313,2577
313,2578
312,2579
313,2580
313,2581
313,2582
312,2583
312,2584
313,2585
313,2586
313,2587
313,2588
313,2589
313,2590
313,2591
313,2592
313,2593
313,2594
313,2595
313,2596
313,2597
313,2598
313,2599
313,2600
312,2601
312,2603
313,2604
313,2605
313,2606
313,2607
313,2608
313,2609
313,2610
313,2611
313,2612
313,2613
313,2613
313,2614
313,2615
313,2616
313,2617
313,2618
313,2619
313,2620
313,2621
313,2622
313,2623
313,2624
313,2625
313,2626
313,2627
314,2628
313,2629
313,2630
313,2631
313,2632
313,2633
313,2634
313,2635
313,2636
313,2637
313,2638
313,2639
313,2640
313,2641
313,2642
313,2643
313,2644
313,2646
314,2647
314,2648
314,2649
314,2650
314,2651
314,2652
314,2653
314,2654
313,2655
314,2656
314,2657
314,2658
314,2659
314,2660
314,2661
314,2662
314,2663
314,2664
314,2664
314,2665
314,2666
314,2667
314,2668
314,2669
314,2670
314,2671
314,2672
314,2673
314,2674
314,2675
314,2676
314,2677
314,2678
314,2679
314,2680
314,2681
314,2682
314,2683
314,2684
314,2685
315,2686
315,2688
315,2689
315,2690
315,2691
315,2692
315,2693
315,2694
315,2695
315,2696
315,2697
315,2698
315,2699
315,2700
315,2701
315,2702
315,2703
315,2704
315,2705
315,2706
315,2707
315,2708
315,2709
315,2710
315,2711
315,2712
315,2713
315,2714
315,2715
315,2716
315,2716
315,2717
315,2718
315,2719
315,2720
315,2721
315,2722
315,2723
315,2724
315,2725
315,2726
315,2727
315,2728
315,2729
315,2731
315,2732
315,2733
315,2734
315,2735
315,2736
315,2737
315,2738
314,2739
314,2740
315,2741
315,2742
315,2743
315,2744
315,2745
315,2746
315,2747
315,2748
315,2749
315,2750
315,2751
315,2752
315,2753
315,2754
315,2755
314,2756
315,2757
315,2758
314,2759
314,2760
315,2761
315,2762
315,2763
315,2764
315,2765
315,2766
315,2767
315,2767
315,2768
315,2769
315,2770
315,2771
315,2772
315,2774
315,2775
315,2776
315,2777
315,2778
315,2779
315,2780
315,2781
315,2782
315,2783
314,2784
314,2785
314,2786
315,2787
315,2788
315,2789
315,2790
315,2791
315,2792
315,2793
316,2794
316,2795
315,2796
315,2797
315,2798
315,2799
315,2800
315,2801
315,2802
315,2803
315,2804
315,2805
315,2806
315,2807
315,2808
315,2809
315,2810
315,2811
315,2812
315,2813
315,2814
315,2816
315,2817
315,2818
315,2819
315,2820
315,2820
315,2821
315,2822
315,2823
315,2824
315,2825
315,2826
315,2827
315,2828
315,2829
315,2830
315,2831
315,2832
315,2833
315,2834
315,2835
315,2836
315,2837
315,2838
315,2839
315,2840
315,2841
315,2842
315,2843
315,2844
315,2845
315,2846
315,2847
315,2848
315,2849
315,2850
315,2851
315,2852
315,2853
315,2854
315,2855
315,2856
315,2857
315,2859
315,2860
315,2861
315,2862
315,2863
315,2864
315,2865
315,2866
315,2867
315,2868
315,2869
316,2870
315,2871
315,2871
315,2872
315,2873
315,2874
315,2875
314,2876
315,2877
315,2878
315,2879
315,2880
315,2881
315,2882
315,2883
315,2884
315,2885
315,2886
315,2887
316,2888
315,2889
315,2890
315,2891
315,2892
315,2893
315,2894
315,2895
315,2896
315,2897
315,2898
314,2899
315,2900
315,2902
315,2903
315,2904
315,2905
315,2906
315,2907
315,2908
315,2909
315,2910
315,2911
315,2912
315,2913
315,2914
315,2915
315,2916
314,2917
314,2918
314,2919
314,2920
314,2921
314,2922
314,2923
314,2923
314,2924
314,2925
315,2926
315,2927
314,2928
315,2929
315,2930
315,2931
315,2932
314,2933
314,2934
314,2935
314,2936
314,2937
314,2938
314,2939
314,2940
314,2941
314,2942
314,2944
314,2945
314,2946
314,2947
314,2948
314,2949
314,2950
315,2951
314,2952
314,2953
314,2954
314,2955
314,2956
314,2957
313,2958
313,2959
313,2960
313,2961
314,2962
313,2963
314,2964
314,2965
314,2966
314,2967
313,2968
314,2969
314,2970
314,2971
314,2972
314,2973
314,2974
314,2974
314,2975
314,2976
313,2977
313,2978
313,2979
313,2980
313,2981
313,2982
313,2983
313,2984
313,2985
313,2987
313,2988
313,2989
313,2990
313,2991
313,2992
313,2993
314,2994
313,2995
313,2996
313,2997
313,2998
313,2999
313,3000
313,3001
313,3002
313,3003
313,3004
313,3005
313,3006
313,3007
313,3008
313,3009
313,3010
313,3011
313,3012
313,3013
313,3014
313,3015
313,3016
313,3017
313,3018
313,3019
313,3020
313,3021
313,3022
313,3023
313,3024
313,3025
313,3026
313,3026
313,3027
313,3028
313,3030
313,3031
313,3032
313,3033
313,3034
313,3035
313,3036
313,3037
313,3038
313,3039
313,3040
313,3041
313,3042
313,3043
313,3044
313,3045
313,3046
313,3047
313,3048
313,3049
313,3050
313,3051
313,3052
313,3053
313,3054
313,3055
313,3056
313,3057
313,3058
313,3059
313,3060
313,3061
313,3062
313,3063
313,3064
313,3065
313,3066
313,3067
313,3068
313,3069
313,3070
313,3072
313,3073
313,3074
313,3075
313,3076
313,3077
313,3078
313,3078
313,3079
312,3080
312,3081
312,3082
312,3083
312,3084
313,3085
313,3086
313,3087
313,3088
313,3089
313,3090
314,3091
313,3092
313,3093
313,3094
313,3095
313,3096
313,3097
313,3098
313,3099
313,3100
313,3101
313,3102
314,3103
313,3104
314,3105
314,3106
314,3107
314,3108
314,3109
314,3110
314,3111
314,3112
314,3113
314,3115
314,3116
314,3117
314,3118
313,3119
314,3120
314,3121
314,3122
314,3123
314,3124
314,3125
314,3126
314,3127
314,3128
314,3129
315,3129
314,3130
314,3131
314,3132
314,3133
314,3134
314,3135
314,3136
314,3137
314,3138
314,3139
314,3140
314,3141
314,3142
314,3143
314,3144
314,3145
314,3146
314,3147
314,3148
314,3149
314,3150
314,3151
314,3152
314,3153
314,3154
314,3155
314,3156
314,3158
314,3159
314,3160
314,3161
314,3162
314,3163
314,3164
315,3165
315,3166
315,3167
315,3168
315,3169
315,3170
315,3171
315,3172
315,3173
315,3174
315,3175
315,3176
315,3177
315,3178
314,3179
314,3180
314,3181
314,3181
314,3182
315,3183
314,3184
315,3185
315,3186
315,3187
315,3188
315,3189
315,3190
315,3191
315,3192
315,3193
315,3194
315,3195
315,3196
315,3197
315,3198
314,3200
314,3201
314,3202
315,3203
314,3204
314,3205
315,3206
315,3207
315,3208
315,3209
315,3210
315,3211
315,3212
315,3213
315,3214
315,3215
315,3216
315,3217
314,3218
314,3219
314,3220
314,3221
314,3222
314,3223
315,3224
314,3225
314,3226
315,3227
314,3228
314,3229
314,3230
314,3231
314,3232
314,3232
314,3233
314,3234
314,3235
313,3236
313,3237
313,3238
313,3239
314,3240
313,3241
314,3243
314,3244
314,3245
314,3246
314,3247
314,3248
314,3249
314,3250
314,3251
313,3252
313,3253
313,3254
313,3255
313,3256
313,3257
313,3258
313,3259
312,3260
313,3261
313,3262
313,3263
313,3264
313,3265
313,3266
313,3267
313,3268
313,3269
313,3270
313,3271
312,3272
313,3273
312,3274
312,3275
312,3276
312,3277
312,3278
312,3279
312,3280
311,3281
311,3282
312,3283
312,3283
312,3284
312,3286
312,3287
312,3288
313,3289
313,3290
313,3291
313,3292
312,3293
312,3294
312,3295
312,3296
312,3297
312,3298
312,3299
311,3300
312,3301
312,3302
312,3303
312,3304
312,3305
312,3306
312,3307
312,3308
312,3309
312,3310
312,3311
312,3312
312,3313
312,3314
312,3315
312,3316
312,3317
312,3318
311,3319
311,3320
311,3321
311,3322
312,3323
312,3324
312,3325
312,3326
312,3328
312,3329
312,3330
312,3331
311,3332
312,3333
312,3334
312,3335
311,3336
311,3336
311,3337
310,3338
311,3339
311,3340
311,3341
311,3342
311,3343
311,3344
311,3345
311,3346
312,3347
312,3348
312,3349
312,3350
312,3351
312,3352
312,3353
311,3354
311,3355
311,3356
311,3357
311,3358
311,3359
311,3360
311,3361
311,3362
311,3363
311,3364
311,3365
311,3366
311,3367
312,3368
312,3369
311,3371
311,3372
311,3373
311,3374
311,3375
311,3376
311,3377
311,3378
311,3379
311,3380
311,3381
311,3382
311,3383
311,3384
311,3385
312,3386
312,3387
312,3387
312,3388
312,3389
312,3390
312,3391
312,3392
311,3393
311,3394
311,3395
311,3396
311,3397
311,3398
311,3399
311,3400
311,3401
311,3402
311,3403
312,3404
312,3405
312,3406
311,3407
311,3408
312,3409
312,3410
312,3411
312,3412
312,3414
312,3415
312,3416
312,3417
312,3418
311,3419
311,3420
312,3421
312,3422
312,3423
312,3424
312,3425
312,3426
312,3427
312,3428
312,3429
312,3430
312,3431
312,3432
312,3433
312,3434
312,3435
312,3436
311,3437
311,3438
311,3439
311,3439
311,3440
311,3441
311,3442
311,3443
311,3444
311,3445
311,3446
311,3447
311,3448
311,3449
311,3450
310,3451
310,3452
310,3453
310,3454
310,3456
310,3457
310,3458
310,3459
310,3460
310,3461
310,3462
310,3463
310,3464
310,3465
310,3466
310,3467
310,3468
310,3469
310,3470
309,3471
310,3472
309,3473
309,3474
309,3475
309,3476
309,3477
309,3478
309,3479
309,3480
309,3481
310,3482
310,3483
310,3484
310,3485
310,3486
310,3487
310,3488
310,3489
310,3490
310,3490
310,3491
310,3492
310,3493
310,3494
310,3495
310,3496
310,3497
310,3499
310,3500
310,3501
310,3502
310,3503
310,3504
310,3505
310,3506
310,3507
310,3508
310,3509
310,3510
310,3511
310,3512
310,3513
310,3514
310,3515
310,3516
310,3517
310,3518
310,3519
310,3520
310,3521
310,3522
310,3523
310,3524
310,3525
310,3526
310,3527
310,3528
310,3529
311,3530
311,3531
310,3532
311,3533
311,3534
311,3535
311,3536
310,3537
310,3538
310,3539
310,3540
310,3542
310,3542
310,3543
310,3544
310,3545
310,3546
310,3547
311,3548
311,3549
311,3550
311,3551
311,3552
311,3553
311,3554
311,3555
311,3556
311,3557
311,3558
311,3559
311,3560
311,3561
311,3562
310,3563
311,3564
311,3565
311,3566
311,3567
311,3568
311,3569
311,3570
311,3571
311,3572
311,3573
311,3574
311,3575
311,3576
311,3577
311,3578
311,3579
311,3580
311,3581
311,3582
311,3584
311,3585
311,3586
311,3587
311,3588
311,3589
311,3590
311,3591
311,3592
312,3593
311,3593
312,3594
312,3595
312,3596
312,3597
312,3598
312,3599
312,3600
312,3601
312,3602
312,3603
312,3604
312,3605
312,3606
312,3607
312,3608
312,3609
312,3610
312,3611
312,3612
312,3613
312,3614
312,3615
312,3616
312,3617
312,3618
312,3619
312,3620
312,3621
312,3622
313,3623
313,3624
313,3625
313,3627
313,3628
313,3629
313,3630
313,3631
313,3632
313,3633
312,3634
312,3635
312,3636
312,3637
312,3638
312,3639
312,3640
312,3641
312,3642
312,3643
312,3644
312,3645
312,3645
313,3646
312,3647
313,3648
313,3649
313,3650
313,3651
313,3652
313,3653
313,3654
313,3655
313,3656
313,3657
313,3658
313,3659
313,3660
312,3661
313,3662
313,3663
313,3664
313,3665
313,3666
313,3667
313,3668
313,3670
313,3671
313,3672
313,3673
313,3674
313,3675
313,3676
313,3677
313,3678
313,3679
313,3680
313,3681
313,3682
313,3683
313,3684
313,3685
313,3686
313,3687
313,3688
313,3689
312,3690
312,3691
313,3692
312,3693
312,3694
312,3695
312,3696
313,3696
312,3697
312,3698
312,3699
313,3700
313,3701
313,3702
313,3703
313,3704
313,3705
313,3706
313,3707
313,3708
313,3709
313,3710
313,3712
313,3713
313,3714
313,3715
313,3716
313,3717
313,3718
313,3719
313,3720
313,3721
313,3722
313,3723
314,3724
314,3725
314,3726
314,3727
314,3728
314,3729
314,3730
314,3731
314,3732
314,3733
314,3734
314,3735
314,3736
314,3737
314,3738
314,3739
314,3740
314,3741
314,3742
314,3743
314,3744
314,3745
314,3746
314,3747
314,3747
314,3748
314,3749
314,3750
314,3751
314,3752
314,3753
314,3755
314,3756
313,3757
313,3758
313,3759
313,3760
313,3761
313,3762
313,3763
313,3764
313,3765
313,3766
313,3767
313,3768
314,3769
314,3770
314,3771
314,3772
314,3773
314,3774
314,3775
314,3776
314,3777
314,3778
314,3779
314,3780
313,3781
313,3782
313,3783
313,3784
313,3785
313,3786
313,3787
313,3788
313,3789
313,3790
313,3791
313,3792
313,3793
313,3794
313,3795
313,3796
313,3798
313,3799
312,3800
313,3800
312,3801
312,3802
312,3803
313,3804
313,3805
313,3806
313,3807
314,3808
314,3809
314,3810
314,3811
314,3812
314,3813
314,3814
314,3815
314,3816
314,3817
313,3818
313,3819
313,3820
313,3821
313,3822
313,3823
313,3824
313,3825
313,3826
314,3827
314,3828
314,3829
314,3830
314,3831
314,3832
314,3833
314,3834
314,3835
314,3836
314,3837
314,3838
314,3840
314,3841
314,3842
314,3843
314,3844
314,3845
314,3846
314,3847
314,3848
314,3849
314,3850
314,3851
314,3851
314,3852
315,3853
315,3854
315,3855
315,3856
315,3857
315,3858
316,3859
316,3860
315,3861
316,3862
315,3863
315,3864
315,3865
315,3866
315,3867
316,3868
316,3869
316,3870
316,3871
316,3872
316,3873
315,3874
315,3875
314,3876
314,3877
314,3878
314,3879
314,3880
314,3881
314,3883
314,3884
314,3885
315,3886
315,3887
315,3888
316,3889
316,3890
316,3891
315,3892
315,3893
314,3894
314,3895
314,3896
313,3897
314,3898
313,3899
314,3900
314,3901
313,3902
314,3903
314,3903
314,3904
315,3905
315,3906
315,3907
315,3908
315,3909
315,3910
315,3911
314,3912
314,3913
314,3914
314,3915
314,3916
313,3917
313,3918
313,3919
313,3920
313,3921
313,3922
313,3923
313,3924
313,3926
314,3927
313,3928
314,3929
314,3930
314,3931
314,3932
314,3933
314,3934
314,3935
313,3936
313,3937
313,3938
313,3939
313,3940
313,3941
313,3942
313,3943
314,3944
314,3945
314,3946
314,3947
314,3948
314,3949
315,3950
315,3951
314,3952
314,3953
314,3954
314,3954
315,3955
315,3956
315,3957
315,3958
315,3959
314,3960
315,3961
315,3962
314,3963
315,3964
315,3965
315,3966
315,3968
315,3969
315,3970
315,3971
315,3972
315,3973
315,3974
315,3975
315,3976
314,3977
314,3978
314,3979
314,3980
314,3981
314,3982
314,3983
314,3984
314,3985
315,3986
315,3987
316,3988
316,3989
316,3990
317,3991
317,3992
317,3993
317,3994
317,3995
316,3996
316,3997
316,3998
316,3999
315,4000
315,4001
315,4002
315,4003
314,4004
314,4005
314,4005
314,4006
314,4007
314,4008
314,4009
314,4011
314,4012
314,4013
314,4014
314,4015
314,4016
313,4017
314,4018
314,4019
314,4020
314,4021
314,4022
315,4023
315,4024
315,4025
315,4026
315,4027
315,4028
315,4029
315,4030
315,4031
316,4032
316,4033
316,4034
316,4035
317,4036
317,4037
317,4038
317,4039
317,4040
317,4041
317,4042
317,4043
317,4044
317,4045
317,4046
317,4047
317,4048
317,4049
317,4050
317,4051
317,4052
317,4054
317,4055
317,4056
318,4057
317,4058
317,4058
317,4059
317,4060
317,4061
316,4062
316,4063
316,4064
316,4065
316,4066
316,4067
315,4068
315,4069
315,4070
315,4071
315,4072
314,4073
314,4074
315,4075
314,4076
315,4077
315,4078
315,4079
315,4080
315,4081
315,4082
315,4083
314,4084
315,4085
314,4086
314,4087
314,4088
314,4089
314,4090
314,4091
314,4092
314,4093
314,4094
314,4096
314,4097
314,4098
314,4099
314,4100
314,4101
314,4102
314,4103
314,4104
314,4105
315,4106
315,4107
315,4108
315,4109
315,4109
315,4110
315,4111
315,4112
315,4113
315,4114
315,4115
314,4116
314,4117
314,4118
314,4119
314,4120
314,4121
315,4122
315,4123
315,4124
315,4125
315,4126
316,4127
316,4128
316,4129
316,4130
317,4131
317,4132
317,4133
317,4134
317,4135
317,4136
316,4137
316,4139
315,4140
315,4141
315,4142
314,4143
314,4144
314,4145
314,4146
314,4147
313,4148
313,4149
313,4150
313,4151
313,4152
313,4153
313,4154
313,4155
313,4156
313,4157
313,4158
313,4159
313,4160
313,4161
313,4161
313,4162
313,4163
313,4164
313,4165
313,4166
313,4167
313,4168
313,4169
313,4170
313,4171
313,4172
313,4173
313,4174
313,4175
313,4176
313,4177
313,4178
313,4179
313,4180
313,4182
313,4183
313,4184
313,4185
313,4186
313,4187
313,4188
312,4189
312,4190
312,4191
312,4192
312,4193
312,4194
312,4195
312,4196
312,4197
312,4198
312,4199
312,4200
313,4201
313,4202
313,4203
313,4204
313,4205
313,4206
313,4207
313,4208
312,4209
312,4210
312,4211
312,4212
312,4212
312,4213
312,4214
312,4215
312,4216
312,4217
312,4218
313,4219
313,4220
314,4221
314,4222
314,4224
314,4225
314,4226
314,4227
313,4228
314,4229
314,4230
313,4231
314,4232
314,4233
313,4234
313,4235
313,4236
313,4237
312,4238
312,4239
311,4240
311,4241
311,4242
311,4243
311,4244
311,4245
311,4246
311,4247
311,4248
310,4249
310,4250
311,4251
310,4252
310,4253
310,4254
310,4255
310,4256
310,4257
310,4258
310,4259
310,4260
310,4261
310,4262
310,4263
310,4263
310,4264
311,4265
311,4267
311,4268
311,4269
311,4270
312,4271
312,4272
312,4273
312,4274
312,4275
312,4276
312,4277
312,4278
312,4279
312,4280
312,4281
312,4282
313,4283
313,4284
313,4285
313,4286
313,4287
313,4288
313,4289
313,4290
313,4291
313,4292
312,4293
312,4294
312,4295
312,4296
312,4297
312,4298
312,4299
312,4300
312,4301
312,4302
312,4303
312,4304
312,4305
313,4306
313,4307
313,4308
313,4310
313,4311
312,4312
312,4313
312,4314
312,4315
312,4315
312,4316
311,4317
311,4318
311,4319
311,4320
311,4321
311,4322
311,4323
312,4324
312,4325
312,4326
312,4327
312,4328
313,4329
313,4330
313,4331
313,4332
313,4333
313,4334
314,4335
314,4336
314,4337
314,4338
313,4339
313,4340
313,4341
313,4342
312,4343
312,4344
312,4345
312,4346
312,4347
313,4348
313,4349
312,4350
313,4352
312,4353
313,4354
312,4355
313,4356
312,4357
312,4358
312,4359
312,4360
312,4361
312,4362
312,4363
312,4364
312,4365
312,4366
312,4367
312,4367
312,4368
312,4369
312,4370
312,4371
312,4372
312,4373
313,4374
313,4375
313,4376
313,4377
313,4378
313,4379
312,4380
313,4381
313,4382
313,4383
313,4384
313,4385
313,4386
313,4387
314,4388
313,4389
313,4390
313,4391
313,4392
313,4393
313,4395
313,4396
312,4397
312,4398
312,4399
312,4400
312,4401
312,4402
312,4403
312,4404
313,4405
313,4406
314,4407
314,4408
314,4409
315,4410
314,4411
314,4412
314,4413
314,4414
313,4415
313,4416
313,4417
313,4418
312,4418
312,4419
312,4420
312,4421
312,4422
312,4423
312,4424
312,4425
312,4426
312,4427
312,4428
312,4429
312,4430
312,4431
312,4432
312,4433
312,4434
312,4435
312,4436
311,4438
311,4439
311,4440
311,4441
311,4442
312,4443
312,4444
312,4445
312,4446
312,4447
312,4448
312,4449
312,4450
312,4451
312,4452
312,4453
311,4454
311,4455
311,4456
311,4457
311,4458
311,4459
310,4460
310,4461
310,4462
310,4463
310,4464
310,4465
310,4466
310,4467
311,4468
311,4469
311,4469
311,4470
311,4471
311,4472
311,4473
311,4474
311,4475
310,4476
311,4477
310,4478
310,4480
311,4481
311,4482
311,4483
311,4484
311,4485
311,4486
311,4487
311,4488
312,4489
312,4490
312,4491
312,4492
312,4493
312,4494
312,4495
312,4496
311,4497
312,4498
312,4499
312,4500
312,4501
312,4502
312,4503
312,4504
312,4505
312,4506
312,4507
312,4508
312,4509
312,4510
312,4511
311,4512
311,4513
311,4514
311,4515
310,4516
310,4517
310,4518
310,4519
310,4520
310,4521
310,4521
311,4523
311,4524
311,4525
311,4526
312,4527
312,4528
312,4529
313,4530
313,4531
313,4532
313,4533
313,4534
313,4535
313,4536
312,4537
312,4538
312,4539
312,4540
312,4541
311,4542
311,4543
311,4544
311,4545
311,4546
311,4547
311,4548
311,4549
311,4550
311,4551
311,4552
311,4553
311,4554
310,4555
311,4556
311,4557
311,4558
311,4559
311,4560
311,4561
311,4562
312,4563
312,4564
312,4566
312,4567
312,4568
312,4569
312,4570
312,4571
312,4572
313,4573
312,4573
312,4574
312,4575
312,4576
312,4577
312,4578
312,4579
312,4580
312,4581
312,4582
312,4583
312,4584
312,4585
312,4586
312,4587
312,4588
312,4589
312,4590
312,4591
312,4592
312,4593
312,4594
312,4595
312,4596
312,4597
312,4598
312,4599
312,4600
312,4601
311,4602
312,4603
312,4604
311,4605
311,4606
311,4608
311,4609
311,4610
311,4611
312,4612
312,4613
311,4614
312,4615
311,4616
311,4617
311,4618
311,4619
311,4620
311,4621
311,4622
311,4623
311,4624
311,4624
311,4625
311,4626
311,4627
311,4628
311,4629
311,4630
312,4631
311,4632
312,4633
311,4634
311,4635
311,4636
311,4637
311,4638
312,4639
312,4640
312,4641
312,4642
312,4643
312,4644
312,4645
312,4646
312,4647
312,4648
312,4649
312,4651
312,4652
312,4653
311,4654
311,4655
311,4656
311,4657
311,4658
311,4659
312,4660
312,4661
313,4662
313,4663
313,4664
314,4665
314,4666
314,4667
315,4668
314,4669
314,4670
314,4671
314,4672
313,4673
313,4674
313,4675
312,4676
312,4676
312,4677
311,4678
311,4679
311,4680
311,4681
311,4682
311,4683
311,4684
311,4685
311,4686
311,4687
311,4688
311,4689
311,4690
311,4691
311,4692
311,4694
311,4695
311,4696
311,4697
310,4698
310,4699
310,4700
310,4701
310,4702
310,4703
310,4704
310,4705
311,4706
310,4707
310,4708
310,4709
311,4710
311,4711
311,4712
311,4713
311,4714
311,4715
310,4716
310,4717
310,4718
310,4719
310,4720
310,4721
310,4722
311,4723
311,4724
311,4725
311,4726
311,4727
312,4728
312,4728
312,4729
312,4730
312,4731
312,4732
312,4733
312,4734
312,4736
312,4737
312,4738
312,4739
311,4740
311,4741
311,4742
310,4743
310,4744
310,4745
310,4746
310,4747
310,4748
310,4749
311,4750
311,4751
311,4752
311,4753
311,4754
311,4755
312,4756
312,4757
311,4758
311,4759
311,4760
311,4761
311,4762
311,4763
311,4764
311,4765
311,4766
310,4767
310,4768
310,4769
310,4770
310,4771
310,4772
310,4773
310,4774
310,4775
310,4776
310,4777
310,4779
310,4780
310,4780
310,4781
310,4782
310,4783
310,4784
310,4785
310,4786
310,4787
310,4788
310,4789
310,4790
310,4791
310,4792
310,4793
310,4794
310,4795
310,4796
310,4797
310,4798
309,4799
310,4800
310,4801
310,4802
310,4803
310,4804
310,4805
310,4806
310,4807
310,4808
310,4809
310,4810
310,4811
310,4812
310,4813
310,4814
309,4815
309,4816
309,4817
309,4818
309,4819
309,4820
309,4822
309,4823
309,4824
309,4825
309,4826
309,4827
309,4828
309,4829
309,4830
309,4831
309,4832
309,4833
309,4834
309,4834
309,4835
310,4836
310,4837
310,4838
310,4839
310,4840
310,4841
310,4842
310,4843
310,4844
310,4845
310,4846
310,4847
310,4848
310,4849
310,4850
310,4851
310,4852
310,4853
309,4854
309,4855
309,4856
309,4857
309,4858
309,4859
309,4860
309,4861
309,4862
309,4864
309,4865
309,4866
309,4867
309,4868
309,4869
309,4870
310,4871
310,4872
310,4873
310,4874
310,4875
310,4876
310,4877
310,4878
311,4879
311,4880
311,4881
311,4882
311,4883
311,4884
311,4885
311,4885
312,4886
312,4887
312,4888
312,4889
312,4890
312,4891
313,4892
313,4893
313,4894
313,4895
313,4896
313,4897
314,4898
314,4899
314,4900
314,4901
314,4902
314,4903
314,4904
314,4905
314,4907
314,4908
314,4909
314,4910
314,4911
314,4912
314,4913
314,4914
315,4915
315,4916
314,4917
315,4918
315,4919
314,4920
314,4921
314,4922
314,4923
314,4924
315,4925
314,4926
314,4927
314,4928
315,4929
315,4930
315,4931
315,4932
315,4933
315,4934
315,4935
315,4936
315,4936
315,4937
315,4938
315,4939
315,4940
315,4941
315,4942
316,4943
316,4944
316,4945
316,4946
316,4947
316,4948
316,4950
316,4951
316,4952
316,4953
316,4954
316,4955
316,4956
316,4957
316,4958
316,4959
316,4960
316,4961
316,4962
316,4963
316,4964
316,4965
316,4966
315,4967
315,4968
315,4969
316,4970
315,4971
315,4972
315,4973
315,4974
315,4975
315,4976
315,4977
316,4978
316,4979
316,4980
316,4981
316,4982
316,4983
316,4984
316,4985
315,4986
315,4987
315,4988
315,4988
315,4989
315,4990
315,4992
315,4993
315,4994
315,4995
315,4996
315,4997
315,4998
315,4999
315,5000
315,5001
315,5002
315,5003
315,5004
315,5005
315,5006
315,5007
315,5008
315,5009
315,5010
315,5011
315,5012
316,5013
316,5014
316,5015
316,5016
316,5017
316,5018
317,5019
316,5020
316,5021
316,5022
316,5023
316,5024
316,5025
317,5026
317,5027
317,5028
317,5029
317,5030
317,5031
317,5032
317,5033
317,5035
317,5036
317,5037
317,5038
317,5039
317,5040
317,5040
317,5041
317,5042
317,5043
317,5044
317,5045
317,5046
316,5047
317,5048
317,5049
317,5050
317,5051
317,5052
317,5053
317,5054
317,5055
317,5056
316,5057
316,5058
316,5059
316,5060
315,5061
315,5062
315,5063
315,5064
315,5065
315,5066
315,5067
314,5068
314,5069
314,5070
314,5071
314,5072
315,5073
315,5074
315,5075
315,5076
315,5078
315,5079
315,5080
315,5081
315,5082
315,5083
315,5084
315,5085
315,5086
315,5087
315,5088
315,5089
315,5090
315,5091
315,5091
315,5092
315,5093
315,5094
315,5095
314,5096
314,5097
314,5098
315,5099
315,5100
315,5101
316,5102
316,5103
316,5104
316,5105
316,5106
316,5107
316,5108
316,5109
315,5110
315,5111
315,5112
315,5113
315,5114
314,5115
315,5116
314,5117
314,5118
314,5120
314,5121
314,5122
314,5123
314,5124
314,5125
314,5126
314,5127
314,5128
314,5129
315,5130
314,5131
314,5132
314,5133
315,5134
315,5135
315,5136
315,5137
315,5138
315,5139
316,5140
316,5141
316,5142
316,5143
316,5144
315,5144
315,5145
315,5146
315,5147
315,5148
315,5149
315,5150
315,5151
315,5152
315,5153
315,5154
315,5155
315,5156
315,5157
315,5158
316,5159
315,5160
315,5161
315,5163
314,5164
314,5165
314,5166
314,5167
314,5168
314,5169
314,5170
315,5171
315,5172
315,5173
315,5174
314,5175
315,5176
314,5177
315,5178
315,5179
315,5180
315,5181
315,5182
315,5183
315,5184
315,5185
315,5186
316,5187
316,5188
316,5189
315,5190
315,5191
315,5192
315,5193
315,5194
315,5195
315,5195
315,5196
315,5197
315,5198
315,5199
315,5200
315,5201
315,5202
315,5203
315,5204
316,5206
316,5207
316,5208
316,5209
316,5210
317,5211
317,5212
317,5213
317,5214
317,5215
317,5216
317,5217
317,5218
317,5219
317,5220
317,5221
317,5222
317,5223
316,5224
317,5225
317,5226
317,5227
317,5228
317,5229
318,5230
318,5231
318,5232
318,5233
318,5234
318,5235
318,5236
317,5237
317,5238
317,5239
317,5240
317,5241
317,5242
317,5243
317,5244
316,5245
317,5246
316,5248
316,5248
317,5249
316,5250
316,5251
316,5252
316,5253
316,5254
315,5255
315,5256
316,5257
315,5258
315,5259
315,5260
316,5261
316,5262
316,5263
316,5264
316,5265
316,5266
316,5267
316,5268
316,5269
316,5270
316,5271
315,5272
316,5273
316,5274
316,5275
316,5276
316,5277
317,5278
317,5279
317,5280
318,5281
318,5282
317,5283
317,5284
317,5285
317,5286
317,5287
317,5288
316,5289
316,5291
316,5292
316,5293
316,5294
315,5295
315,5296
316,5297
315,5298
315,5299
315,5299
315,5300
315,5301
315,5302
315,5303
314,5304
314,5305
314,5306
314,5307
314,5308
313,5309
313,5310
313,5311
313,5312
313,5313
313,5314
313,5315
313,5316
313,5317
314,5318
313,5319
313,5320
313,5321
313,5322
313,5323
313,5324
312,5325
312,5326
312,5327
312,5328
312,5329
312,5330
312,5331
312,5332
312,5334
312,5335
312,5336
312,5337
312,5338
312,5339
312,5340
312,5341
312,5342
312,5343
312,5344
312,5345
312,5346
312,5347
312,5348
312,5349
312,5350
312,5350
312,5351
312,5352
312,5353
312,5354
313,5355
313,5356
314,5357
314,5358
314,5359
314,5360
314,5361
315,5362
314,5363
314,5364
314,5365
314,5366
313,5367
314,5368
313,5369
313,5370
313,5371
313,5372
313,5373
313,5374
313,5376
313,5377
314,5378
314,5379
314,5380
314,5381
314,5382
314,5383
314,5384
314,5385
314,5386
313,5387
313,5388
312,5389
312,5390
312,5391
311,5392
312,5393
312,5394
312,5395
312,5396
312,5397
313,5398
312,5399
312,5400
312,5401
312,5402
312,5402
312,5403
312,5404
312,5405
312,5406
312,5407
312,5408
312,5409
312,5410
312,5411
312,5412
313,5413
313,5414
314,5415
314,5416
314,5417
314,5419
314,5420
314,5421
313,5422
313,5423
312,5424
312,5425
312,5426
312,5427
312,5428
312,5429
312,5430
313,5431
312,5432
312,5433
312,5434
312,5435
312,5436
312,5437
312,5438
312,5439
312,5440
311,5441
312,5442
312,5443
312,5444
312,5445
312,5446
312,5447
313,5448
313,5449
314,5450
314,5451
315,5452
315,5453
315,5453
315,5454
315,5455
315,5456
314,5457
314,5458
313,5459
313,5460
313,5462
313,5463
313,5464
312,5465
312,5466
312,5467
312,5468
312,5469
312,5470
312,5471
313,5472
313,5473
314,5474
314,5475
315,5476
315,5477
316,5478
316,5479
316,5480
316,5481
316,5482
315,5483
316,5484
315,5485
315,5486
315,5487
315,5488
315,5489
314,5490
314,5491
314,5492
314,5493
314,5494
314,5495
314,5496
314,5497
314,5498
314,5499
314,5500
314,5501
315,5502
314,5504
314,5505
314,5505
314,5506
314,5507
313,5508
313,5509
313,5510
313,5511
313,5512
313,5513
313,5514
313,5515
312,5516
313,5517
312,5518
312,5519
313,5520
313,5521
313,5522
313,5523
313,5524
313,5525
313,5526
313,5527
313,5528
313,5529
313,5530
313,5531
313,5532
313,5533
313,5534
313,5535
314,5536
314,5537
314,5538
315,5539
315,5540
315,5541
315,5542
315,5543
315,5544
315,5545
315,5547
314,5548
314,5549
314,5550
314,5551
313,5552
313,5553
313,5554
313,5555
313,5556
313,5556
313,5557
313,5558
313,5559
313,5560
313,5561
313,5562
313,5563
313,5564
314,5565
313,5566
313,5567
313,5568
313,5569
313,5570
313,5571
313,5572
313,5573
313,5574
313,5575
313,5576
313,5577
312,5578
313,5579
313,5580
313,5581
313,5582
313,5583
313,5584
313,5585
314,5586
314,5587
314,5588
314,5590
314,5591
314,5592
314,5593
314,5594
314,5595
315,5596
314,5597
314,5598
314,5599
314,5600
314,5601
314,5602
314,5603
314,5604
314,5605
314,5606
315,5607
315,5608
315,5608
316,5609
316,5610
315,5611
315,5612
315,5613
315,5614
314,5615
314,5616
314,5617
314,5618
314,5619
314,5620
314,5621
314,5622
314,5623
315,5624
315,5625
315,5626
315,5627
315,5628
314,5629
314,5630
315,5632
314,5633
314,5634
314,5635
314,5636
314,5637
314,5638
314,5639
314,5640
313,5641
313,5642
313,5643
312,5644
312,5645
312,5646
312,5647
312,5648
312,5649
312,5650
312,5651
312,5652
313,5653
313,5654
313,5655
313,5656
313,5657
313,5658
313,5659
313,5659
314,5660
313,5661
314,5662
314,5663
314,5664
314,5665
314,5666
315,5667
315,5668
315,5669
315,5670
315,5671
315,5672
315,5673
315,5675
315,5676
315,5677
315,5678
315,5679
316,5680
315,5681
315,5682
315,5683
315,5684
315,5685
315,5686
314,5687
314,5688
314,5689
314,5690
314,5691
313,5692
313,5693
313,5694
313,5695
313,5696
313,5697
313,5698
313,5699
313,5700
313,5701
312,5702
312,5703
312,5704
312,5705
312,5706
313,5707
313,5708
313,5709
313,5710
313,5710
313,5711
313,5712
313,5713
313,5714
313,5715
313,5716
313,5718
313,5719
313,5720
313,5721
313,5722
313,5723
313,5724
313,5725
313,5726
313,5727
313,5728
313,5729
314,5730
314,5731
314,5732
314,5733
314,5734
314,5735
314,5736
314,5737
314,5738
314,5739
314,5740
314,5741
314,5742
314,5743
314,5744
314,5745
314,5746
314,5747
315,5748
315,5749
315,5750
315,5751
315,5752
315,5753
315,5754
315,5755
315,5756
316,5757
316,5758
316,5760
317,5761
317,5762
317,5763
317,5763
317,5764
318,5765
318,5766
317,5767
317,5768
317,5769
316,5770
316,5771
316,5772
316,5773
317,5774
317,5775
317,5776
317,5777
317,5778
318,5779
318,5780
318,5781
318,5782
318,5783
318,5784
318,5785
318,5786
317,5787
317,5788
316,5789
316,5790
315,5791
315,5792
315,5793
315,5794
315,5795
316,5796
316,5797
316,5798
316,5799
316,5800
316,5801
316,5803
316,5804
315,5805
315,5806
315,5807
315,5808
315,5809
315,5810
315,5811
315,5812
314,5813
314,5814
314,5814
314,5815
314,5816
314,5817
313,5818
313,5819
313,5820
314,5821
314,5822
314,5823
314,5824
314,5825
314,5826
314,5827
314,5828
314,5829
314,5830
314,5831
314,5832
314,5833
313,5834
313,5835
313,5836
313,5837
313,5838
313,5839
313,5840
313,5841
313,5842
313,5843
313,5844
313,5846
313,5847
313,5848
313,5849
313,5850
313,5851
314,5852
314,5853
314,5854
315,5855
315,5856
316,5857
316,5858
316,5859
316,5860
316,5861
316,5862
316,5863
316,5864
315,5865
315,5866
314,5866
314,5867
314,5868
313,5869
313,5870
313,5871
313,5872
313,5873
312,5874
312,5875
312,5876
312,5877
312,5878
312,5879
312,5880
312,5881
312,5882
312,5883
312,5884
312,5885
312,5886
311,5888
311,5889
310,5890
310,5891
310,5892
310,5893
310,5894
310,5895
310,5896
311,5897
310,5898
311,5899
311,5900
311,5901
311,5902
311,5903
311,5904
311,5905
311,5906
311,5907
310,5908
311,5909
311,5910
311,5911
311,5912
311,5913
312,5914
312,5915
313,5916
313,5917
313,5917
313,5918
313,5919
312,5920
312,5921
312,5922
312,5923
312,5924
312,5925
312,5926
312,5927
312,5928
312,5929
312,5931
313,5932
313,5933
312,5934
312,5935
312,5936
312,5937
312,5938
312,5939
312,5940
312,5941
312,5942
312,5943
312,5944
312,5945
312,5946
312,5947
312,5948
312,5949
312,5950
312,5951
311,5952
311,5953
311,5954
311,5955
311,5956
311,5957
311,5958
311,5959
311,5960
311,5961
310,5962
311,5963
310,5964
311,5965
311,5966
311,5967
311,5968
311,5968
311,5969
311,5970
311,5971
311,5972
311,5974
311,5975
311,5976
311,5977
311,5978
311,5979
311,5980
311,5981
311,5982
311,5983
311,5984
311,5985
311,5986
311,5987
312,5988
312,5989
312,5990
313,5991
314,5992
315,5993
315,5994
315,5995
315,5996
314,5997
313,5998
313,5999
312,6000
312,6001
312,6002
312,6003
312,6004
312,6005
312,6006
312,6007
312,6008
312,6009
312,6010
313,6011
313,6012
312,6013
313,6014
313,6016
312,6017
312,6018
312,6019
312,6020
313,6021
312,6021
312,6022
312,6023
312,6024
312,6025
312,6026
312,6027
312,6028
312,6029
312,6030
312,6031
312,6032
312,6033
312,6034
312,6035
312,6036
313,6037
313,6038
313,6039
314,6040
314,6041
315,6042
315,6043
315,6044
315,6045
315,6046
315,6047
314,6048
314,6049
314,6050
315,6051
315,6052
316,6053
316,6054
316,6055
316,6056
317,6057
317,6059
317,6060
316,6061
316,6062
316,6063
315,6064
315,6065
316,6066
316,6067
316,6068
315,6069
315,6070
315,6071
315,6072
315,6072
315,6073
315,6074
315,6075
315,6076
315,6077
315,6078
315,6079
314,6080
314,6081
314,6082
314,6083
314,6084
314,6085
315,6086
314,6087
314,6088
314,6089
314,6090
314,6091
314,6092
314,6093
314,6094
314,6095
314,6096
313,6097
314,6098
314,6099
314,6100
314,6102
314,6103
314,6104
314,6105
315,6106
316,6107
316,6108
316,6109
316,6110
316,6111
316,6112
316,6113
316,6114
316,6115
315,6116
315,6117
315,6118
315,6119
315,6120
314,6121
314,6122
314,6123
315,6123
315,6124
314,6125
315,6126
315,6127
315,6128
316,6129
316,6130
317,6131
317,6132
317,6133
317,6134
317,6135
317,6136
317,6137
317,6138
317,6139
318,6140
318,6141
317,6142
317,6144
317,6145
316,6146
316,6147
316,6148
316,6149
316,6150
316,6151
316,6152
316,6153
316,6154
316,6155
316,6156
316,6157
316,6158
315,6159
315,6160
315,6161
315,6162
315,6163
315,6164
315,6165
315,6166
314,6167
315,6168
315,6169
315,6170
315,6171
315,6172
315,6173
315,6174
315,6175
316,6175
316,6176
316,6177
317,6178
317,6179
317,6180
318,6181
318,6182
317,6183
318,6184
317,6185
317,6187
317,6188
317,6189
317,6190
317,6191
318,6192
318,6193
317,6194
318,6195
318,6196
318,6197
318,6198
318,6199
318,6200
318,6201
317,6202
317,6203
317,6204
317,6205
317,6206
317,6207
317,6208
317,6209
317,6210
317,6211
317,6212
317,6213
318,6214
318,6215
318,6216
317,6217
317,6218
317,6219
317,6220
317,6221
317,6222
317,6223
317,6224
317,6225
317,6226
317,6226
317,6227
317,6228
317,6230
317,6231
317,6232
317,6233
316,6234
316,6235
316,6236
317,6237
317,6238
318,6239
318,6240
318,6241
319,6242
319,6243
319,6244
319,6245
319,6246
319,6247
319,6248
318,6249
318,6250
318,6251
318,6252
318,6253
318,6254
318,6255
318,6256
317,6257
317,6258
317,6259
317,6260
318,6261
318,6262
318,6263
318,6264
318,6265
317,6266
317,6267
317,6268
316,6269
316,6270
316,6272
316,6273
315,6274
315,6275
315,6276
315,6277
315,6278
316,6278
316,6279
316,6280
316,6281
316,6282
316,6283
316,6284
317,6285
317,6286
317,6287
317,6288
316,6289
316,6290
316,6291
315,6292
315,6293
314,6294
314,6295
314,6296
314,6297
313,6298
313,6299
313,6300
314,6301
313,6302
313,6303
314,6304
314,6305
314,6306
314,6307
314,6308
315,6309
315,6310
316,6311
316,6312
316,6313
316,6315
316,6316
315,6317
315,6318
315,6319
314,6320
314,6321
314,6322
314,6323
314,6324
315,6325
315,6326
315,6327
315,6328
315,6329
315,6330
315,6330
316,6331
316,6332
317,6333
316,6334
316,6335
316,6336
316,6337
316,6338
315,6339
315,6340
315,6341
315,6342
314,6343
314,6344
314,6345
314,6346
314,6347
313,6348
313,6349
313,6350
313,6351
312,6352
312,6353
312,6354
313,6355
312,6356
312,6358
312,6359
311,6360
311,6361
311,6362
311,6363
312,6364
312,6365
313,6366
313,6367
313,6368
313,6369
313,6370
313,6371
312,6372
312,6373
312,6374
312,6375
312,6376
312,6377
312,6378
311,6379
312,6380
312,6381
312,6382
312,6382
312,6383
312,6384
312,6385
313,6386
313,6387
313,6388
314,6389
314,6390
315,6391
315,6392
315,6393
316,6394
316,6395
316,6396
315,6397
315,6398
314,6400
314,6401
314,6402
314,6403
314,6404
314,6405
314,6406
314,6407
314,6408
313,6409
313,6410
312,6411
312,6412
312,6413
312,6414
312,6415
312,6416
312,6417
312,6418
312,6419
312,6420
312,6421
313,6422
313,6423
313,6424
313,6425
313,6426
313,6427
313,6428
313,6429
313,6430
313,6431
313,6432
313,6433
313,6434
312,6435
312,6435
312,6436
312,6437
312,6438
312,6439
312,6440
311,6441
312,6443
312,6444
312,6445
311,6446
311,6447
311,6448
311,6449
312,6450
312,6451
312,6452
313,6453
312,6454
312,6455
312,6456
311,6457
311,6458
311,6459
311,6460
311,6461
311,6462
311,6463
311,6464
311,6465
311,6466
311,6467
311,6468
311,6469
312,6470
312,6471
312,6472
312,6473
312,6474
312,6475
312,6476
312,6477
312,6478
312,6479
312,6480
312,6481
312,6482
312,6483
312,6484
312,6486
311,6487
311,6487
311,6488
311,6489
311,6490
312,6491
312,6492
311,6493
311,6494
311,6495
311,6496
311,6497
311,6498
311,6499
311,6500
311,6501
312,6502
312,6503
312,6504
312,6505
312,6506
312,6507
313,6508
313,6509
313,6510
313,6511
312,6512
312,6513
311,6514
311,6515
311,6516
311,6517
310,6518
310,6519
310,6520
310,6521
310,6522
310,6523
310,6524
311,6525
311,6526
312,6528
312,6529
313,6530
313,6531
314,6532
315,6533
315,6534
315,6535
314,6536
314,6537
314,6538
313,6539
314,6539
313,6540
313,6541
313,6542
312,6543
312,6544
312,6545
312,6546
311,6547
312,6548
312,6549
312,6550
312,6551
313,6552
313,6553
313,6554
313,6555
312,6556
313,6557
313,6558
312,6559
313,6560
312,6561
312,6562
312,6563
311,6564
311,6565
310,6566
310,6567
310,6568
310,6569
310,6571
310,6572
310,6573
310,6574
310,6575
309,6576
309,6577
309,6578
309,6579
309,6580
309,6581
309,6582
309,6583
309,6584
309,6585
309,6586
309,6587
309,6588
309,6589
309,6590
309,6590
310,6591
309,6592
310,6593
310,6594
311,6595
311,6596
311,6597
311,6598
312,6599
312,6600
312,6601
312,6602
312,6603
312,6604
313,6605
313,6606
314,6607
314,6608
314,6609
314,6610
315,6611
315,6612
315,6614
315,6615
316,6616
315,6617
315,6618
315,6619
315,6620
315,6621
314,6622
314,6623
314,6624
313,6625
313,6626
312,6627
312,6628
312,6629
312,6630
312,6631
312,6632
312,6633
312,6634
313,6635
312,6636
313,6637
313,6638
313,6639
313,6640
313,6641
313,6642
313,6642
312,6643
312,6644
311,6645
310,6646
309,6647
309,6648
310,6649
310,6650
312,6651
313,6652
313,6653
313,6654
313,6656
313,6657
313,6658
313,6659
313,6660
312,6661
312,6662
312,6663
312,6664
313,6665
313,6666
314,6667
315,6668
316,6669
316,6670
316,6671
317,6672
317,6673
318,6674
318,6675
319,6676
320,6677
320,6678
319,6679
318,6680
318,6681
318,6682
318,6683
317,6684
317,6685
316,6686
316,6687
315,6688
315,6689
314,6690
314,6691
313,6692
313,6693
313,6693
313,6694
313,6695
314,6696
314,6697
314,6699
314,6700
314,6701
314,6702
313,6703
313,6704
314,6705
313,6706
313,6707
313,6708
314,6709
314,6710
315,6711
315,6712
314,6713
313,6714
311,6715
310,6716
309,6717
309,6718
309,6719
310,6720
310,6721
311,6722
312,6723
313,6724
314,6725
314,6726
315,6727
315,6728
316,6729
316,6730
316,6731
317,6732
316,6733
316,6734
316,6735
316,6736
317,6737
317,6738
318,6739
318,6740
318,6742
318,6743
318,6744
318,6745
317,6746
316,6746
317,6747
317,6748
318,6749
318,6750
319,6751
320,6752
320,6753
320,6754
319,6755
318,6756
317,6757
316,6758
316,6759
316,6760
318,6761
319,6762
321,6763
323,6764
324,6765
324,6766
322,6767
322,6768
322,6769
323,6770
325,6771
325,6772
326,6773
327,6774
327,6775
326,6776
326,6777
325,6778
325,6779
325,6780
325,6781
325,6782
324,6784
322,6785
320,6786
318,6787
317,6788
316,6789
316,6790
318,6791
319,6792
320,6793
320,6794
320,6795
320,6796
321,6797
322,6797
324,6798
326,6799
327,6800
327,6801
327,6802
327,6803
327,6804
327,6805
329,6806
330,6807
331,6808
331,6809
328,6810
325,6811
321,6812
318,6813
314,6814
312,6815
310,6816
311,6817
311,6818
312,6819
313,6820
315,6821
317,6822
319,6823
320,6824
320,6825
320,6827
319,6828
318,6829
319,6830
320,6831
323,6832
327,6833
332,6834
335,6835
338,6836
338,6837
336,6838
331,6839
325,6840
320,6841
318,6842
318,6843
318,6844
318,6845
318,6846
319,6847
319,6848
319,6849
319,6849
319,6850
319,6851
320,6852
320,6853
320,6854
321,6855
322,6856
323,6857
323,6858
325,6859
327,6860
330,6861
331,6862
332,6863
332,6864
333,6865
333,6866
332,6867
333,6868
332,6870
331,6871
330,6872
331,6873
331,6874
329,6875
332,6876
335,6877
336,6878
336,6879
336,6880
337,6881
339,6882
340,6883
340,6884
342,6885
344,6886
346,6887
346,6888
344,6889
343,6890
342,6891
341,6892
340,6893
340,6894
339,6895
338,6896
336,6897
334,6898
332,6899
331,6900
329,6900
327,6901
326,6902
324,6903
321,6904
320,6905
320,6906
320,6907
321,6908
322,6909
326,6910
332,6912
340,6913
348,6914
355,6915
361,6916
365,6917
364,6918
356,6919
348,6920
339,6921
331,6922
325,6923
323,6924
324,6925
326,6926
328,6927
329,6928
330,6929
331,6930
332,6931
332,6932
332,6933
332,6934
331,6935
329,6936
328,6937
328,6938
330,6939
332,6940
334,6941
334,6942
336,6943
335,6944
335,6945
333,6946
331,6947
328,6948
327,6949
332,6950
335,6951
337,6952
336,6952
335,6953
334,6955
330,6956
326,6957
323,6958
323,6959
324,6960
324,6961
324,6962
324,6963
323,6964
321,6965
320,6966
321,6967
322,6968
322,6969
323,6970
324,6971
324,6972
325,6973
329,6974
332,6975
334,6976
335,6977
333,6978
329,6979
325,6980
321,6981
318,6982
317,6983
316,6984
317,6985
318,6986
320,6987
321,6988
321,6989
321,6990
320,6991
320,6992
320,6993
321,6994
323,6995
323,6996
327,6998
330,6999
332,7000
332,7001
332,7002
332,7003
329,7004
325,7004
321,7005
318,7006
317,7007
317,7008
318,7009
319,7010
320,7011
320,7012
320,7013
322,7014
325,7015
329,7016
331,7017
333,7018
335,7019
333,7020
330,7021
325,7022
321,7023
319,7024
318,7025
318,7026
318,7027
318,7028
317,7029
318,7030
318,7031
318,7032
319,7033
321,7034
323,7035
324,7036
324,7037
324,7038
326,7040
326,7041
328,7042
329,7043
329,7044
328,7045
326,7046
328,7047
329,7048
330,7049
333,7050
338,7051
341,7052
340,7053
338,7054
337,7055
335,7055
334,7056
333,7057
333,7058
332,7059
329,7060
328,7061
326,7062
326,7063
325,7064
325,7065
325,7066
324,7067
323,7068
322,7069
321,7070
321,7071
320,7072
319,7073
319,7074
317,7075
315,7076
316,7077
318,7078
321,7079
324,7080
329,7081
333,7083
335,7084
338,7085
339,7086
340,7087
339,7088
334,7089
329,7090
325,7091
324,7092
325,7093
326,7094
328,7095
330,7096
331,7097
331,7098
327,7099
323,7100
318,7101
312,7102
310,7103
309,7104
310,7105
312,7106
315,7107
318,7107
322,7108
326,7109
328,7110
329,7111
328,7112
327,7113
325,7114
323,7115
321,7116
324,7117
326,7118
327,7119
329,7120
330,7121
328,7122
328,7123
329,7124
329,7126
333,7127
337,7128
339,7129
339,7130
339,7131
338,7132
334,7133
329,7134
325,7135
323,7136
321,7137
320,7138
320,7139
319,7140
318,7141
318,7142
317,7143
317,7144
317,7145
316,7146
314,7147
313,7148
312,7149
308,7150
302,7151
295,7152
291,7153
289,7154
290,7155
292,7156
294,7157
298,7158
305,7158
314,7159
322,7160
327,7161
331,7162
334,7163
338,7164
338,7165
338,7166
337,7168
336,7169
335,7170
332,7171
328,7172
324,7173
325,7174
324,7175
323,7176
324,7177
323,7178
320,7179
316,7180
311,7181
307,7182
304,7183
304,7184
306,7185
308,7186
307,7187
305,7188
306,7189
309,7190
312,7191
315,7192
314,7193
317,7194
320,7195
323,7196
324,7197
326,7198
328,7199
328,7200
324,7201
322,7202
319,7203
317,7204
314,7205
310,7206
307,7207
306,7208
307,7209
309,7211
310,7211
311,7212
311,7213
308,7214
305,7215
303,7216
304,7217
307,7218
312,7219
317,7220
323,7221
327,7222
326,7223
323,7224
320,7225
317,7226
317,7227
317,7228
314,7229
313,7230
312,7231
310,7232
309,7233
308,7234
308,7235
309,7236
313,7237
318,7238
321,7239
321,7240
319,7241
316,7242
312,7243
309,7244
307,7245
305,7246
305,7247
304,7248
304,7249
303,7250
303,7251
304,7252
308,7254
313,7255
319,7256
324,7257
326,7258
329,7259
334,7260
338,7261
340,7262
341,7262
342,7263
339,7264
333,7265
326,7266
318,7267
312,7268
309,7269
307,7270
304,7271
300,7272
297,7273
295,7274
297,7275
298,7276
299,7277
301,7278
304,7279
307,7280
309,7281
311,7282
311,7283
309,7284
307,7285
306,7286
306,7287
307,7288
310,7289
319,7290
326,7291
329,7292
330,7293
329,7294
324,7296
316,7297
308,7298
301,7299
297,7300
294,7301
292,7302
291,7303
291,7304
291,7305
291,7306
294,7307
297,7308
301,7309
303,7310
308,7311
315,7312
322,7313
328,7313
337,7314
345,7315
351,7316
351,7317
349,7318
343,7319
337,7320
330,7321
322,7322
318,7323
315,7324
310,7325
303,7326
299,7327
295,7328
296,7329
302,7330
307,7331
311,7332
314,7333
316,7334
315,7335
312,7336
308,7337
303,7339
298,7340
295,7341
296,7342
299,7343
301,7344
304,7345
306,7346
308,7347
309,7348
307,7349
306,7350
304,7351
304,7352
309,7353
313,7354
317,7355
319,7356
319,7357
318,7358
317,7359
314,7360
310,7361
310,7362
319,7363
326,7364
329,7365
329,7365
329,7366
326,7367
323,7368
318,7369
315,7370
316,7371
318,7372
318,7373
318,7374
315,7375
312,7376
312,7377
310,7378
305,7379
300,7380
298,7382
297,7383
297,7384
300,7385
303,7386
306,7387
308,7388
313,7389
317,7390
319,7391
323,7392
326,7393
326,7394
325,7395
323,7396
317,7397
307,7398
299,7399
294,7400
292,7401
290,7402
292,7403
295,7404
299,7405
304,7406
307,7407
310,7408
312,7409
311,7410
309,7411
309,7412
308,7413
307,7414
312,7415
315,7416
316,7416
316,7417
315,7418
314,7419
311,7420
308,7421
306,7422
306,7424
307,7425
306,7426
303,7427
299,7428
296,7429
293,7430
291,7431
291,7432
291,7433
292,7434
295,7435
300,7436
305,7437
309,7438
311,7439
314,7440
316,7441
316,7442
316,7443
321,7444
324,7445
328,7446
332,7447
337,7448
339,7449
338,7450
337,7451
334,7452
329,7453
323,7454
317,7455
311,7456
307,7457
302,7458
298,7459
296,7460
298,7461
299,7462
301,7463
306,7464
308,7465
310,7467
309,7468
309,7468
314,7469
321,7470
326,7471
328,7472
330,7473
329,7474
323,7475
316,7476
312,7477
308,7478
308,7479
306,7480
302,7481
301,7482
300,7483
301,7484
303,7485
309,7486
314,7487
319,7488
320,7489
320,7490
317,7491
310,7492
304,7493
301,7494
299,7495
299,7496
297,7497
296,7498
296,7499
297,7500
298,7501
297,7502
296,7503
295,7504
293,7505
293,7506
297,7507
304,7508
314,7510
322,7511
328,7512
330,7513
330,7514
328,7515
325,7516
321,7517
316,7518
312,7519
311,7519
313,7520
315,7521
318,7522
323,7523
328,7524
330,7525
328,7526
324,7527
322,7528
319,7529
311,7530
304,7531
303,7532
307,7533
313,7534
318,7535
321,7536
322,7537
321,7538
320,7539
325,7540
328,7541
329,7542
328,7543
329,7544
327,7545
320,7546
312,7547
303,7548
296,7549
291,7550
288,7552
286,7553
285,7554
286,7555
286,7556
285,7557
286,7558
288,7559
287,7560
288,7561
289,7562
291,7563
297,7564
302,7565
306,7566
308,7567
308,7568
305,7569
301,7570
300,7571
301,7571
305,7572
314,7573
326,7574
337,7575
342,7576
342,7577
337,7578
328,7579
317,7580
306,7581
297,7582
293,7583
292,7584
292,7585
293,7586
296,7587
301,7588
307,7589
314,7590
319,7591
323,7592
327,7593
328,7595
325,7596
323,7597
321,7598
324,7599
323,7600
320,7601
318,7602
318,7603
316,7604
313,7605
311,7606
310,7607
311,7608
313,7609
311,7610
308,7611
306,7612
302,7613
297,7614
293,7615
291,7616
289,7617
291,7618
296,7619
302,7620
312,7621
321,7622
326,7623
326,7623
323,7624
317,7625
305,7626
297,7627
292,7628
291,7629
294,7630
297,7631
299,7632
301,7633
304,7634
307,7635
311,7636
313,7638
314,7639
316,7640
318,7641
319,7642
326,7643
336,7644
345,7645
346,7646
343,7647
337,7648
331,7649
325,7650
319,7651
319,7652
321,7653
323,7654
324,7655
324,7656
322,7657
320,7658
320,7659
321,7660
320,7661
319,7662
316,7663
310,7664
303,7665
298,7666
295,7667
297,7668
301,7669
304,7670
305,7671
306,7672
305,7673
300,7674
295,7674
291,7675
287,7676
284,7677
283,7678
283,7680
284,7681
287,7682
288,7683
289,7684
290,7685
292,7686
293,7687
294,7688
297,7689
300,7690
304,7691
308,7692
315,7693
321,7694
325,7695
327,7696
324,7697
320,7698
315,7699
313,7700
312,7701
313,7702
314,7703
311,7704
311,7705
310,7706
310,7707
309,7708
308,7709
308,7710
305,7711
308,7712
313,7713
322,7714
329,7715
332,7716
333,7717
328,7718
323,7719
317,7720
311,7721
307,7723
305,7724
303,7725
302,7726
299,7727
298,7727
301,7728
306,7729
309,7730
310,7731
308,7732
305,7733
302,7734
301,7735
306,7736
311,7737
315,7738
317,7739
316,7740
314,7741
310,7742
307,7743
308,7744
314,7745
319,7746
321,7747
320,7748
315,7749
310,7750
306,7751
301,7752
300,7753
303,7754
304,7755
304,7756
303,7757
302,7758
305,7759
308,7760
310,7761
311,7762
309,7763
305,7764
301,7766
303,7767
308,7768
314,7769
320,7770
322,7771
321,7772
315,7773
306,7774
299,7775
294,7776
294,7777
294,7778
292,7778
290,7779
288,7780
288,7781
289,7782
296,7783
306,7784
311,7785
313,7786
312,7787
313,7788
313,7789
316,7790
319,7791
320,7792
321,7793
321,7794
322,7795
319,7796
314,7797
310,7798
309,7799
311,7800
312,7801
313,7802
310,7803
311,7804
312,7805
313,7806
314,7808
316,7809
321,7810
324,7811
325,7812
327,7813
327,7814
321,7815
314,7816
306,7817
299,7818
296,7819
294,7820
291,7821
290,7822
289,7823
290,7824
291,7825
293,7826
296,7827
298,7828
300,7829
300,7830
299,7830
298,7831
296,7832
297,7833
299,7834
302,7835
304,7836
305,7837
304,7838
301,7839
299,7840
297,7841
297,7842
304,7843
314,7844
323,7845
329,7846
329,7847
326,7848
321,7849
318,7851
317,7852
319,7853
324,7854
327,7855
328,7856
326,7857
320,7858
310,7859
301,7860
296,7861
297,7862
305,7863
311,7864
321,7865
333,7866
341,7867
343,7868
338,7869
330,7870
320,7871
309,7872
299,7873
293,7874
288,7875
284,7876
282,7877
283,7878
287,7879
293,7880
297,7881
301,7881
311,7882
320,7883
324,7884
327,7885
328,7886
324,7887
318,7888
309,7889
303,7890
303,7891
307,7892
308,7894
309,7895
311,7896
311,7897
308,7898
303,7899
300,7900
295,7901
295,7902
294,7903
294,7904
293,7905
292,7906
292,7907
292,7908
292,7909
293,7910
295,7911
299,7912
302,7913
308,7914
321,7915
332,7916
338,7917
339,7918
337,7919
332,7920
323,7921
314,7922
306,7923
303,7924
300,7925
299,7926
300,7927
302,7928
303,7929
303,7930
299,7931
297,7932
296,7932
295,7933
294,7934
291,7936
291,7937
297,7938
306,7939
320,7940
330,7941
337,7942
338,7943
334,7944
326,7945
319,7946
312,7947
307,7948
304,7949
301,7950
300,7951
303,7952
309,7953
309,7954
307,7955
303,7956
298,7957
293,7958
288,7959
284,7960
283,7961
290,7962
298,7963
305,7964
310,7965
313,7966
319,7967
320,7968
317,7969
313,7970
310,7971
309,7972
310,7973
311,7974
311,7975
314,7976
316,7977
315,7979
310,7980
304,7981
301,7982
298,7983
299,7984
304,7985
311,7985
319,7986
323,7987
323,7988
318,7989
309,7990
299,7991
292,7992
292,7993
294,7994
296,7995
297,7996
298,7997
300,7998
300,7999
297,8000
293,8001
290,8002
288,8003
287,8004
289,8005
292,8006
298,8007
304,8008
308,8009
310,8010
318,8011
326,8012
330,8013
331,8014
329,8015
324,8016
320,8017
315,8018
309,8019
306,8020
307,8022
308,8023
307,8024
309,8025
309,8026
308,8027
311,8028
314,8029
316,8030
320,8031
322,8032
321,8033
317,8034
310,8035
303,8036
298,8036
295,8037
292,8038
290,8039
290,8040
290,8041
290,8042
293,8043
295,8044
300,8045
308,8046
319,8047
327,8048
332,8049
336,8050
337,8051
331,8052
320,8053
313,8054
310,8055
310,8056
310,8057
308,8058
306,8059
304,8060
303,8061
305,8062
310,8064
318,8065
322,8066
326,8067
328,8068
326,8069
320,8070
312,8071
309,8072
311,8073
315,8074
319,8075
320,8076
321,8077
320,8078
319,8079
318,8080
315,8081
312,8082
305,8083
300,8084
301,8085
303,8086
305,8087
311,8087
315,8088
317,8089
315,8090
309,8091
304,8092
299,8093
294,8094
289,8095
285,8096
284,8097
286,8098
290,8099
297,8100
305,8101
315,8102
323,8103
326,8104
325,8105
320,8107
316,8108
312,8109
304,8110
299,8111
296,8112
297,8113
302,8114
306,8115
312,8116
317,8117
321,8118
322,8119
319,8120
313,8121
308,8122
305,8123
302,8124
299,8125
299,8126
302,8127
304,8128
305,8129
307,8130
311,8131
318,8132
322,8133
325,8134
323,8135
322,8136
319,8137
315,8138
311,8139
308,8139
307,8140
308,8141
307,8142
307,8143
305,8144
304,8145
304,8146
306,8147
307,8148
310,8150
312,8151
311,8152
308,8153
308,8154
313,8155
311,8156
305,8157
299,8158
294,8159
291,8160
286,8161
283,8162
281,8163
284,8164
289,8165
294,8166
298,8167
301,8168
304,8169
304,8170
303,8171
303,8172
306,8173
312,8174
315,8175
316,8176
315,8177
313,8178
311,8179
309,8180
309,8181
311,8182
312,8183
312,8184
313,8185
313,8186
313,8187
312,8188
308,8189
305,8190
307,8190
310,8192
313,8193
317,8194
323,8195
323,8196
320,8197
314,8198
306,8199
298,8200
292,8201
288,8202
285,8203
285,8204
288,8205
294,8206
303,8207
312,8208
319,8209
324,8210
324,8211
320,8212
311,8213
304,8214
299,8215
298,8216
298,8217
301,8218
305,8219
313,8220
322,8221
327,8222
325,8223
320,8224
314,8225
306,8226
298,8227
296,8228
292,8229
290,8230
288,8231
284,8232
281,8233
282,8235
285,8236
289,8237
293,8238
296,8239
297,8240
298,8241
297,8242
299,8242
303,8243
307,8244
310,8245
310,8246
308,8247
306,8248
308,8249
313,8250
316,8251
320,8252
325,8253
329,8254
328,8255
323,8256
317,8257
312,8258
311,8259
309,8260
307,8261
307,8262
306,8263
307,8264
307,8265
307,8266
309,8267
311,8268
313,8269
313,8270
311,8271
306,8272
301,8273
298,8274
297,8275
296,8276
296,8278
296,8279
297,8280
298,8281
301,8282
305,8283
309,8284
312,8285
316,8286
320,8287
323,8288
326,8289
327,8290
325,8291
323,8292
319,8293
314,8294
312,8294
311,8295
312,8296
312,8297
312,8298
311,8299
312,8300
312,8301
310,8302
307,8303
305,8304
304,8305
305,8306
309,8307
312,8308
313,8309
312,8310
310,8311
307,8312
303,8313
299,8314
300,8315
304,8316
307,8317
308,8318
311,8320
319,8321
326,8322
330,8323
330,8324
327,8325
321,8326
314,8327
306,8328
299,8329
293,8330
289,8331
288,8332
290,8333
296,8334
302,8335
306,8336
309,8337
311,8338
316,8339
315,8340
313,8341
314,8342
314,8343
315,8344
314,8345
309,8345
303,8346
298,8347
297,8348
298,8349
302,8350
306,8351
310,8352
314,8353
314,8354
311,8355
310,8356
312,8357
315,8358
317,8359
317,8360
315,8361
312,8363
310,8364
307,8365
307,8366
310,8367
311,8368
309,8369
308,8370
308,8371
307,8372
307,8373
307,8374
309,8375
313,8376
318,8377
326,8378
333,8379
335,8380
332,8381
325,8382
319,8383
311,8384
304,8385
302,8386
301,8387
302,8388
303,8389
304,8390
304,8391
304,8392
303,8393
302,8394
301,8395
301,8396
301,8397
302,8397
304,8398
306,8399
306,8400
305,8401
302,8402
300,8403
300,8404
299,8406
296,8407
296,8408
300,8409
309,8410
317,8411
325,8412
331,8413
333,8414
331,8415
325,8416
315,8417
305,8418
301,8419
300,8420
297,8421
296,8422
300,8423
302,8424
304,8425
305,8426
308,8427
309,8428
310,8429
310,8430
310,8431
308,8432
307,8433
309,8434
307,8435
307,8436
309,8437
313,8438
317,8439
317,8440
314,8441
307,8442
302,8443
301,8444
299,8445
302,8446
303,8448
303,8449
304,8449
307,8450
312,8451
316,8452
320,8453
322,8454
325,8455
325,8456
322,8457
317,8458
315,8459
310,8460
305,8461
303,8462
306,8463
314,8464
323,8465
327,8466
330,8467
328,8468
321,8469
315,8470
315,8471
314,8472
311,8473
309,8474
305,8475
301,8476
301,8477
304,8478
309,8479
313,8480
317,8481
322,8482
323,8483
322,8484
320,8485
317,8486
314,8487
310,8488
309,8489
312,8491
315,8492
318,8493
317,8494
314,8495
311,8496
306,8497
301,8498
297,8499
297,8500
298,8501
296,8501
294,8502
292,8503
292,8504
293,8505
296,8506
305,8507
314,8508
321,8509
325,8510
327,8511
329,8512
336,8513
342,8514
347,8515
347,8516
342,8517
334,8518
326,8519
317,8520
310,8521
307,8522
309,8523
310,8524
311,8525
315,8526
320,8527
325,8528
328,8529
324,8530
318,8531
313,8532
310,8534
310,8535
310,8536
312,8537
313,8538
313,8539
311,8540
308,8541
303,8542
299,8543
300,8544
304,8545
306,8546
309,8547
311,8548
312,8549
311,8550
312,8551
316,8552
318,8552
317,8553
318,8554
316,8555
312,8556
307,8557
304,8558
299,8559
295,8560
291,8561
288,8562
287,8563
286,8564
286,8565
287,8566
290,8567
292,8568
298,8569
304,8570
307,8571
311,8572
313,8573
313,8574
311,8576
309,8577
307,8578
308,8579
308,8580
309,8581
310,8582
310,8583
308,8584
307,8585
307,8586
308,8587
310,8588
314,8589
315,8590
314,8591
313,8592
310,8593
309,8594
308,8595
309,8596
309,8597
309,8598
309,8599
308,8600
307,8601
304,8602
302,8603
301,8603
302,8604
307,8605
316,8606
321,8607
322,8608
321,8609
320,8610
323,8611
329,8612
336,8613
338,8614
336,8615
332,8616
325,8617
318,8619
312,8620
307,8621
307,8622
309,8623
312,8624
313,8625
313,8626
315,8627
312,8628
308,8629
303,8630
297,8631
294,8632
294,8633
296,8634
297,8635
298,8636
299,8637
301,8638
303,8639
303,8640
303,8641
304,8642
304,8643
302,8644
300,8645
300,8646
302,8647
303,8648
304,8649
306,8650
309,8651
318,8652
326,8653
332,8654
334,8655
334,8655
331,8656
323,8657
313,8658
307,8659
305,8660
306,8662
307,8663
307,8664
307,8665
309,8666
313,8667
315,8668
314,8669
313,8670
309,8671
304,8672
302,8673
303,8674
303,8675
304,8676
307,8677
309,8678
314,8679
319,8680
326,8681
331,8682
335,8683
339,8684
339,8685
334,8686
331,8687
326,8688
322,8689
320,8690
318,8691
320,8692
325,8693
329,8694
329,8695
327,8696
321,8697
315,8698
310,8699
306,8700
303,8701
302,8702
304,8704
305,8705
308,8706
311,8707
313,8707
312,8708
308,8709
304,8710
299,8711
297,8712
298,8713
299,8714
301,8715
302,8716
303,8717
302,8718
301,8719
301,8720
302,8721
304,8722
306,8723
308,8724
315,8725
324,8726
330,8727
333,8728
333,8729
329,8730
323,8731
316,8732
311,8733
309,8734
310,8735
313,8736
316,8737
318,8738
320,8739
320,8740
322,8741
322,8742
319,8743
313,8744
307,8745
302,8747
299,8748
297,8749
297,8750
299,8751
302,8752
304,8753
305,8754
307,8755
310,8756
316,8757
321,8758
325,8758
326,8759
324,8760
321,8761
316,8762
313,8763
310,8764
308,8765
307,8766
307,8767
313,8768
320,8769
326,8770
332,8771
338,8772
342,8773
344,8774
341,8775
336,8776
330,8777
325,8778
318,8779
312,8780
309,8781
306,8782
304,8783
302,8784
299,8785
298,8786
297,8787
298,8788
298,8790
297,8791
298,8792
299,8793
304,8794
306,8795
304,8796
304,8797
306,8798
311,8799
318,8800
324,8801
328,8802
332,8803
332,8804
329,8805
324,8806
319,8807
316,8808
314,8809
312,8810
311,8810
312,8811
314,8812
316,8813
316,8814
314,8815
309,8816
304,8817
299,8818
300,8819
305,8820
311,8821
315,8822
319,8823
322,8824
323,8825
322,8826
322,8827
323,8828
324,8829
327,8830
327,8832
324,8833
319,8834
315,8835
312,8836
316,8837
319,8838
319,8839
319,8840
318,8841
319,8842
317,8843
315,8844
312,8845
309,8846
310,8847
318,8848
327,8849
333,8850
333,8851
330,8852
322,8853
311,8854
302,8855
296,8856
294,8857
294,8858
295,8859
296,8860
299,8861
303,8861
309,8862
313,8863
314,8864
317,8865
317,8866
316,8867
314,8868
310,8869
304,8870
301,8871
300,8872
301,8873
303,8875
305,8876
308,8877
310,8878
312,8879
311,8880
307,8881
301,8882
294,8883
289,8884
288,8885
289,8886
294,8887
303,8888
311,8889
320,8890
328,8891
335,8892
341,8893
344,8894
347,8895
348,8896
347,8897
341,8898
333,8899
329,8900
325,8901
321,8902
316,8903
311,8904
311,8905
310,8906
307,8907
304,8908
304,8909
304,8910
305,8911
308,8912
309,8913
307,8913
308,8914
309,8915
309,8916
310,8918
311,8919
308,8920
302,8921
300,8922
302,8923
306,8924
312,8925
317,8926
318,8927
316,8928
310,8929
303,8930
299,8931
301,8932
306,8933
309,8934
311,8935
309,8936
307,8937
304,8938
302,8939
300,8940
297,8941
296,8942
295,8943
294,8944
293,8945
296,8946
301,8947
306,8948
310,8949
313,8950
314,8951
312,8952
309,8953
306,8954
305,8955
307,8956
312,8957
317,8958
319,8960
322,8961
326,8962
330,8963
334,8964
335,8965
337,8965
335,8966
329,8967
325,8968
323,8969
320,8970
315,8971
313,8972
312,8973
311,8974
311,8975
317,8976
323,8977
329,8978
331,8979
331,8980
328,8981
319,8982
307,8983
296,8984
290,8985
292,8986
295,8987
297,8988
301,8989
306,8990
311,8991
319,8992
325,8993
329,8994
331,8995
332,8996
329,8997
326,8998
323,8999
320,9000
316,9001
315,9003
312,9004
310,9005
309,9006
308,9007
306,9008
304,9009
302,9010
303,9011
303,9012
304,9013
303,9014
303,9015
302,9016
299,9016
295,9017
295,9018
294,9019
295,9020
299,9021
308,9022
322,9023
336,9024
345,9025
347,9026
342,9027
333,9028
324,9029
318,9030
318,9031
322,9032
322,9033
321,9034
317,9035
310,9036
304,9037
299,9038
296,9039
293,9040
291,9041
290,9042
289,9043
291,9044
292,9046
293,9047
296,9048
300,9049
302,9050
307,9051
315,9052
324,9053
331,9054
336,9055
337,9056
334,9057
329,9058
324,9059
320,9060
319,9061
320,9062
322,9063
320,9064
315,9065
307,9066
302,9067
300,9068
300,9068
301,9069
302,9070
302,9071
301,9072
299,9073
295,9074
293,9075
293,9076
295,9077
296,9078
297,9079
298,9080
301,9081
306,9082
315,9083
327,9084
339,9085
350,9086
353,9088
349,9089
340,9090
329,9091
321,9092
318,9093
314,9094
310,9095
306,9096
304,9097
302,9098
304,9099
309,9100
313,9101
318,9102
322,9103
326,9104
326,9105
323,9106
318,9107
313,9108
310,9109
309,9110
308,9111
307,9112
306,9113
309,9114
311,9115
316,9116
319,9117
319,9118
319,9119
319,9119
315,9120
309,9121
304,9122
298,9123
294,9124
295,9125
303,9126
315,9127
328,9128
339,9129
345,9131
347,9132
345,9133
340,9134
333,9135
322,9136
311,9137
299,9138
291,9139
286,9140
283,9141
282,9142
281,9143
282,9144
286,9145
293,9146
304,9147
313,9148
320,9149
324,9150
321,9151
316,9152
314,9153
315,9154
315,9155
313,9156
311,9157
310,9158
310,9159
308,9160
305,9161
304,9162
305,9163
306,9164
305,9165
305,9166
304,9167
305,9168
309,9169
312,9170
315,9171
319,9171
324,9172
324,9174
319,9175
313,9176
308,9177
302,9178
299,9179
305,9180
313,9181
320,9182
329,9183
336,9184
340,9185
339,9186
333,9187
324,9188
312,9189
304,9190
301,9191
301,9192
301,9193
300,9194
300,9195
301,9196
303,9197
307,9198
311,9199
314,9200
313,9201
310,9202
306,9203
302,9204
299,9205
297,9206
294,9207
290,9208
287,9209
285,9210
286,9211
288,9212
291,9213
295,9214
299,9216
303,9217
306,9218
309,9219
312,9220
315,9221
319,9222
326,9223
329,9223
330,9224
331,9225
332,9226
332,9227
330,9228
324,9229
318,9230
313,9231
311,9232
312,9233
311,9234
311,9235
315,9236
324,9237
332,9238
336,9239
337,9240
337,9241
336,9242
335,9243
331,9244
325,9245
321,9246
322,9247
325,9248
325,9249
326,9250
325,9251
322,9252
318,9253
313,9254
308,9255
303,9256
299,9257
298,9259
297,9260
296,9261
294,9262
294,9263
297,9264
300,9265
300,9266
299,9267
299,9268
298,9269
297,9270
298,9271
300,9272
300,9273
300,9274
302,9274
307,9275
314,9276
322,9277
329,9278
331,9279
328,9280
321,9281
316,9282
312,9283
310,9284
309,9285
307,9286
304,9287
304,9288
304,9289
305,9290
305,9291
303,9292
301,9293
299,9294
296,9295
292,9296
289,9297
287,9298
288,9299
292,9300
296,9302
301,9303
307,9304
314,9305
322,9306
329,9307
336,9308
342,9309
345,9310
345,9311
344,9312
339,9313
332,9314
325,9315
317,9316
311,9317
308,9318
307,9319
305,9320
306,9321
310,9322
318,9323
326,9324
332,9325
335,9325
335,9326
331,9327
324,9328
315,9329
305,9330
301,9331
301,9332
299,9333
300,9334
303,9335
307,9336
309,9337
310,9338
310,9339
308,9340
302,9341
295,9342
291,9344
288,9345
286,9346
286,9347
287,9348
289,9349
292,9350
295,9351
298,9352
300,9353
300,9354
301,9355
303,9356
306,9357
313,9358
321,9359
324,9360
326,9361
327,9362
326,9363
320,9364
313,9365
306,9366
301,9367
300,9368
300,9369
301,9370
303,9371
306,9372
308,9373
310,9374
312,9375
314,9376
313,9377
313,9377
316,9378
320,9379
323,9380
326,9381
327,9382
325,9383
321,9384
317,9385
318,9387
321,9388
323,9389
325,9390
325,9391
322,9392
319,9393
319,9394
320,9395
320,9396
319,9397
318,9398
317,9399
317,9400
317,9401
317,9402
316,9403
313,9404
307,9405
301,9406
298,9407
299,9408
301,9409
303,9410
310,9411
316,9412
322,9413
325,9414
324,9415
319,9416
314,9417
308,9418
306,9419
307,9420
308,9421
311,9422
315,9423
318,9424
320,9425
318,9426
314,9427
308,9428
299,9428
291,9430
289,9431
288,9432
287,9433
286,9434
285,9435
288,9436
293,9437
300,9438
308,9439
317,9440
323,9441
325,9442
325,9443
321,9444
318,9445
315,9446
320,9447
324,9448
325,9449
329,9450
335,9451
339,9452
339,9453
334,9454
325,9455
319,9456
312,9457
305,9458
298,9459
296,9460
298,9461
302,9462
304,9463
306,9464
309,9465
312,9466
317,9467
324,9468
330,9469
335,9470
337,9472
338,9473
339,9474
336,9475
332,9476
324,9477
319,9478
317,9479
317,9480
317,9481
314,9481
311,9482
306,9483
302,9484
301,9485
304,9486
307,9487
309,9488
309,9489
308,9490
306,9491
305,9492
312,9493
319,9494
328,9495
334,9496
334,9497
330,9498
322,9499
314,9500
307,9501
302,9502
301,9503
300,9504
301,9505
304,9506
305,9507
304,9508
303,9509
301,9510
297,9511
294,9512
292,9513
292,9515
293,9516
299,9517
308,9518
317,9519
325,9520
329,9521
328,9522
322,9523
313,9524
308,9525
311,9526
316,9527
322,9528
324,9529
323,9530
320,9531
315,9532
308,9533
302,9533
300,9534
304,9535
311,9536
315,9537
319,9538
322,9539
323,9540
321,9541
319,9542
318,9543
316,9544
313,9545
311,9546
309,9547
312,9548
318,9549
325,9550
329,9551
331,9552
328,9553
324,9554
322,9555
319,9556
314,9558
312,9559
313,9560
313,9561
314,9562
315,9563
316,9564
317,9565
320,9566
321,9567
318,9568
313,9569
310,9570
307,9571
308,9572
314,9573
318,9574
318,9575
317,9576
316,9577
314,9578
310,9579
305,9580
300,9581
300,9582
300,9583
303,9584
307,9585
313,9586
318,9586
322,9587
326,9588
329,9589
327,9590
325,9591
323,9592
324,9593
324,9594
324,9595
321,9596
316,9597
312,9598
308,9600
305,9601
302,9602
299,9603
297,9604
297,9605
297,9606
301,9607
306,9608
311,9609
314,9610
316,9611
317,9612
322,9613
326,9614
328,9615
331,9616
331,9617
331,9618
327,9619
323,9620
321,9621
319,9622
316,9623
316,9624
317,9625
318,9626
315,9627
311,9628
308,9629
307,9630
304,9631
305,9632
306,9633
311,9634
317,9635
323,9636
332,9637
342,9638
348,9638
349,9639
344,9640
333,9641
318,9643
305,9644
297,9645
293,9646
293,9647
297,9648
299,9649
303,9650
307,9651
311,9652
314,9653
315,9654
312,9655
308,9656
304,9657
304,9658
308,9659
308,9660
310,9661
312,9662
314,9663
316,9664
315,9665
313,9666
313,9667
315,9668
317,9669
317,9670
319,9671
322,9672
325,9673
328,9674
329,9675
327,9676
326,9677
325,9678
326,9679
328,9680
327,9681
325,9682
321,9683
314,9684
309,9686
309,9687
311,9688
311,9689
312,9690
316,9691
320,9691
326,9692
332,9693
333,9694
331,9695
329,9696
325,9697
319,9698
311,9699
305,9700
300,9701
300,9702
301,9703
302,9704
304,9705
307,9706
308,9707
308,9708
308,9709
308,9710
306,9711
303,9712
300,9713
297,9714
296,9715
297,9716
299,9717
302,9718
303,9719
301,9720
297,9721
294,9722
291,9723
298,9724
308,9725
319,9726
331,9728
338,9729
344,9730
345,9731
340,9732
333,9733
323,9734
314,9735
303,9736
293,9737
285,9738
279,9739
278,9740
278,9741
280,9742
285,9742
292,9743
299,9744
304,9745
308,9746
310,9747
313,9748
315,9749
315,9750
316,9751
319,9752
323,9753
330,9754
334,9755
335,9756
337,9757
339,9758
336,9759
329,9760
320,9761
311,9762
307,9763
306,9764
306,9765
308,9766
312,9767
319,9768
322,9769
324,9771
324,9772
324,9773
322,9774
322,9775
327,9776
332,9777
333,9778
331,9779
330,9780
327,9781
321,9782
313,9783
306,9784
301,9785
296,9786
292,9787
291,9788
292,9789
295,9790
298,9791
302,9792
305,9793
309,9793
310,9794
310,9795
309,9796
312,9797
312,9798
312,9799
317,9800
320,9801
324,9802
324,9803
323,9804
319,9805
315,9806
310,9807
305,9808
301,9809
303,9810
305,9811
306,9812
307,9814
311,9815
314,9816
315,9817
318,9818
321,9819
324,9820
324,9821
324,9822
321,9823
315,9824
311,9825
306,9826
300,9827
296,9828
299,9829
309,9830
319,9831
327,9832
333,9833
337,9834
336,9835
333,9836
328,9837
325,9838
324,9839
321,9840
316,9841
311,9842
312,9843
312,9844
311,9844
310,9845
309,9846
308,9847
307,9848
304,9849
302,9850
304,9851
308,9852
310,9853
311,9854
312,9856
312,9857
312,9858
311,9859
309,9860
307,9861
304,9862
303,9863
304,9864
307,9865
310,9866
309,9867
306,9868
302,9869
299,9870
298,9871
298,9872
301,9873
309,9874
317,9875
322,9876
327,9877
330,9878
330,9879
326,9880
320,9881
314,9882
306,9883
298,9884
291,9885
285,9886
281,9887
283,9888
288,9889
296,9890
303,9891
308,9892
312,9893
316,9894
318,9895
318,9896
317,9896
319,9897
320,9899
322,9900
324,9901
327,9902
330,9903
330,9904
329,9905
324,9906
318,9907
317,9908
318,9909
320,9910
320,9911
316,9912
312,9913
306,9914
301,9915
297,9916
295,9917
294,9918
292,9919
293,9920
299,9921
308,9922
318,9923
325,9924
330,9925
331,9926
333,9927
334,9928
333,9929
329,9930
323,9931
316,9932
309,9933
304,9934
303,9935
303,9936
303,9937
303,9938
301,9939
298,9940
296,9942
291,9943
288,9944
285,9945
287,9946
292,9947
299,9948
306,9949
310,9949
311,9950
310,9951
308,9952
309,9953
313,9954
322,9955
335,9956
342,9957
346,9958
346,9959
346,9960
343,9961
340,9962
336,9963
332,9964
327,9965
319,9966
308,9967
299,9968
292,9969
288,9970
284,9971
283,9972
285,9973
287,9974
290,9975
295,9976
301,9977
311,9978
323,9979
338,9980
348,9981
353,9982
353,9984
349,9985
342,9986
332,9987
326,9988
320,9989
317,9990
315,9991
311,9992
306,9993
300,9994
294,9995
291,9996
293,9997
304,9998
317,9999
328,10000
337,10000
342,10001
340,10002
334,10003
324,10004
311,10005
300,10006
291,10007
287,10008
284,10009
283,10010
283,10011
285,10012
289,10013
296,10014
305,10015
314,10016
321,10017
327,10018
328,10019
326,10020
323,10021
322,10022
320,10023
317,10024
312,10025
305,10027
300,10028
296,10029
293,10030
292,10031
290,10032
292,10033
296,10034
303,10035
310,10036
315,10037
318,10038
319,10039
320,10040
317,10041
315,10042
316,10043
320,10044
325,10045
329,10046
329,10047
329,10048
327,10049
328,10050
330,10051
332,10052
333,10052
334,10053
334,10054
328,10055
322,10056
316,10057
314,10058
312,10059
311,10060
308,10061
306,10062
307,10063
308,10064
308,10065
308,10066
309,10067
311,10068
314,10070
317,10071
319,10072
325,10073
331,10074
336,10075
337,10076
336,10077
329,10078
317,10079
305,10080
299,10081
298,10082
301,10083
301,10084
301,10085
302,10086
299,10087
294,10088
288,10089
285,10090
283,10091
282,10092
281,10093
282,10094
284,10095
289,10096
296,10097
304,10098
312,10099
317,10100
319,10101
321,10102
323,10103
323,10103
323,10104
325,10105
324,10106
322,10107
318,10108
313,10109
309,10110
310,10112
314,10113
318,10114
321,10115
324,10116
325,10117
324,10118
320,10119
315,10120
308,10121
302,10122
298,10123
298,10124
302,10125
307,10126
314,10127
323,10128
330,10129
334,10130
333,10131
328,10132
321,10133
315,10134
312,10135
314,10136
316,10137
315,10138
315,10139
313,10140
310,10141
307,10142
310,10143
313,10144
314,10145
314,10146
316,10147
316,10148
317,10149
316,10150
313,10151
308,10152
304,10153
300,10155
298,10156
299,10156
300,10157
300,10158
297,10159
294,10160
291,10161
291,10162
292,10163
292,10164
293,10165
292,10166
292,10167
296,10168
304,10169
312,10170
319,10171
324,10172
325,10173
325,10174
322,10175
318,10176
314,10177
310,10178
308,10179
308,10180
312,10181
316,10182
321,10183
324,10184
326,10185
328,10186
329,10187
326,10188
319,10189
311,10190
308,10191
311,10192
317,10193
320,10194
321,10195
318,10196
312,10198
307,10199
305,10200
306,10201
305,10202
303,10203
300,10204
295,10205
291,10206
290,10207
291,10207
295,10208
299,10209
304,10210
311,10211
318,10212
325,10213
330,10214
333,10215
333,10216
331,10217
327,10218
317,10219
308,10220
302,10221
297,10222
294,10223
294,10224
295,10225
296,10226
296,10227
295,10228
295,10229
297,10230
299,10231
302,10232
303,10233
303,10234
302,10235
301,10236
299,10237
299,10238
299,10240
298,10241
299,10242
300,10243
301,10244
302,10245
305,10246
308,10247
310,10248
313,10249
316,10250
318,10251
318,10252
318,10253
317,10254
315,10255
312,10256
312,10257
317,10258
325,10259
334,10259
344,10260
349,10261
346,10262
338,10263
329,10264
322,10265
322,10266
322,10267
322,10268
320,10269
317,10270
315,10271
317,10272
319,10273
323,10274
326,10275
327,10276
326,10277
326,10278
324,10279
324,10280
324,10281
324,10283
322,10284
317,10285
311,10286
302,10287
295,10288
290,10289
287,10290
287,10291
292,10292
298,10293
305,10294
317,10295
329,10296
337,10297
340,10298
340,10299
335,10300
328,10301
321,10302
312,10303
306,10304
305,10305
308,10306
312,10307
315,10308
316,10309
317,10310
318,10311
318,10312
315,10312
310,10313
309,10314
310,10315
313,10316
317,10317
321,10318
325,10319
326,10320
325,10321
321,10322
314,10323
306,10324
299,10326
297,10327
299,10328
304,10329
310,10330
318,10331
325,10332
329,10333
330,10334
329,10335
326,10336
324,10337
324,10338
324,10339
324,10340
320,10341
317,10342
314,10343
308,10344
302,10345
300,10346
302,10347
304,10348
303,10349
302,10350
302,10351
300,10352
299,10353
297,10354
295,10355
295,10356
294,10357
294,10358
294,10359
295,10360
298,10361
301,10362
304,10363
305,10363
306,10364
309,10365
313,10366
316,10368
319,10369
323,10370
330,10371
338,10372
343,10373
345,10374
345,10375
340,10376
333,10377
327,10378
325,10379
323,10380
321,10381
318,10382
315,10383
312,10384
309,10385
307,10386
307,10387
307,10388
306,10389
304,10390
305,10391
306,10392
306,10393
304,10394
304,10395
307,10396
310,10397
313,10398
315,10399
317,10400
318,10401
317,10402
313,10403
313,10404
316,10405
319,10406
321,10407
323,10408
325,10409
327,10411
329,10412
327,10413
324,10414
321,10415
320,10416
319,10416
318,10417
317,10418
316,10419
314,10420
309,10421
304,10422
303,10423
302,10424
304,10425
308,10426
311,10427
312,10428
310,10429
305,10430
302,10431
300,10432
298,10433
298,10434
297,10435
296,10436
297,10437
303,10438
312,10439
322,10440
333,10441
341,10442
347,10443
347,10444
343,10445
338,10446
332,10447
326,10448
319,10449
312,10450
304,10451
300,10452
299,10454
297,10455
297,10456
296,10457
295,10458
295,10459
296,10460
300,10461
302,10462
303,10463
303,10464
303,10465
302,10466
301,10467
299,10468
298,10468
298,10469
299,10470
303,10471
309,10472
317,10473
327,10474
335,10475
341,10476
346,10477
349,10478
348,10479
344,10480
340,10481
336,10482
330,10483
321,10484
313,10485
304,10486
299,10487
298,10488
298,10489
298,10490
298,10491
297,10492
296,10493
294,10494
293,10496
292,10497
296,10498
301,10499
305,10500
309,10501
315,10502
320,10503
323,10504
323,10505
320,10506
319,10507
319,10508
322,10509
329,10510
340,10511
350,10512
354,10513
352,10514
345,10515
334,10516
323,10517
316,10518
310,10519
305,10520
302,10520
301,10521
301,10522
299,10523
297,10524
293,10525
290,10526
288,10527
287,10528
289,10529
291,10530
294,10531
297,10532
301,10533
308,10534
312,10535
316,10536
317,10537
314,10539
312,10540
309,10541
307,10542
303,10543
300,10544
298,10545
297,10546
298,10547
301,10548
305,10549
310,10550
316,10551
329,10552
341,10553
346,10554
345,10555
341,10556
337,10557
331,10558
320,10559
311,10560
307,10561
307,10562
308,10563
308,10564
310,10565
313,10566
319,10567
325,10568
327,10569
325,10570
322,10571
319,10572
317,10572
311,10573
306,10574
301,10575
297,10576
296,10577
300,10578
309,10579
324,10580
338,10582
346,10583
349,10584
347,10585
342,10586
336,10587
330,10588
325,10589
322,10590
318,10591
314,10592
309,10593
305,10594
303,10595
302,10596
301,10597
297,10598
291,10599
286,10600
285,10601
285,10602
283,10603
282,10604
282,10605
285,10606
288,10607
291,10608
295,10609
297,10610
300,10611
303,10612
307,10613
311,10614
314,10615
314,10616
313,10617
314,10618
317,10619
328,10620
339,10621
347,10622
351,10624
352,10624
347,10625
338,10626
330,10627
325,10628
328,10629
334,10630
335,10631
332,10632
324,10633
314,10634
304,10635
298,10636
294,10637
291,10638
291,10639
294,10640
300,10641
306,10642
311,10643
316,10644
318,10645
320,10646
321,10647
319,10648
316,10649
312,10650
310,10651
310,10652
311,10653
315,10654
320,10655
324,10656
325,10657
327,10658
329,10659
331,10660
333,10661
335,10662
335,10663
329,10664
321,10665
312,10667
304,10668
298,10669
294,10670
291,10671
290,10672
293,10673
295,10674
298,10675
298,10676
296,10676
294,10677
292,10678
292,10679
290,10680
289,10681
290,10682
292,10683
295,10684
298,10685
300,10686
303,10687
304,10688
304,10689
303,10690
302,10691
304,10692
308,10693
314,10694
321,10695
326,10696
330,10697
329,10698
325,10699
321,10700
316,10701
312,10702
312,10703
315,10704
316,10705
314,10706
313,10707
314,10708
321,10710
328,10711
333,10712
334,10713
334,10714
331,10715
327,10716
321,10717
315,10718
305,10719
299,10720
297,10721
296,10722
298,10723
301,10724
304,10725
310,10726
320,10727
328,10728
335,10728
338,10729
339,10730
335,10731
330,10732
324,10733
316,10734
310,10735
308,10736
312,10737
313,10738
316,10739
321,10740
326,10741
329,10742
326,10743
320,10744
313,10745
306,10746
302,10747
298,10748
293,10749
290,10750
288,10752
289,10753
293,10754
297,10755
301,10756
304,10757
306,10758
307,10759
307,10760
307,10761
307,10762
304,10763
302,10764
304,10765
306,10766
311,10767
316,10768
320,10769
321,10770
322,10771
321,10772
320,10773
320,10774
322,10775
325,10776
327,10777
326,10778
326,10779
325,10780
325,10780
323,10781
320,10782
316,10783
311,10784
309,10785
310,10786
311,10787
313,10788
314,10789
317,10790
321,10791
322,10792
322,10793
320,10795
317,10796
315,10797
313,10798
312,10799
310,10800
308,10801
306,10802
304,10803
305,10804
312,10805
318,10806
324,10807
329,10808
333,10809
334,10810
331,10811
321,10812
312,10813
307,10814
308,10815
309,10816
310,10817
310,10818
310,10819
309,10820
309,10821
308,10822
309,10823
311,10824
312,10825
311,10826
308,10827
304,10828
302,10829
303,10830
306,10831
309,10831
313,10832
317,10833
319,10834
321,10835
322,10836
323,10838
322,10839
322,10840
321,10841
319,10842
316,10843
313,10844
315,10845
321,10846
326,10847
329,10848
328,10849
328,10850
325,10851
321,10852
314,10853
308,10854
306,10855
305,10856
306,10857
306,10858
306,10859
306,10860
305,10861
304,10862
302,10863
297,10864
294,10865
294,10866
294,10867
294,10868
294,10869
294,10870
295,10871
299,10872
305,10873
312,10874
317,10875
322,10876
325,10877
328,10878
331,10880
333,10881
337,10882
340,10883
342,10883
344,10884
343,10885
340,10886
334,10887
327,10888
321,10889
321,10890
322,10891
321,10892
318,10893
316,10894
314,10895
312,10896
308,10897
303,10898
300,10899
299,10900
299,10901
298,10902
299,10903
302,10904
304,10905
304,10906
303,10907
301,10908
299,10909
296,10910
296,10911
296,10912
298,10913
303,10914
311,10915
319,10916
327,10917
332,10918
334,10919
333,10920
333,10921
329,10923
327,10924
330,10925
332,10926
333,10927
333,10928
335,10929
336,10930
335,10931
331,10932
324,10933
321,10934
322,10935
322,10935
322,10936
322,10937
322,10938
320,10939
314,10940
309,10941
305,10942
303,10943
299,10944
296,10945
296,10946
298,10947
302,10948
303,10949
305,10950
306,10951
305,10952
307,10953
310,10954
316,10955
321,10956
324,10957
326,10958
325,10959
324,10960
325,10961
327,10962
327,10963
328,10964
329,10966
330,10967
328,10968
324,10969
322,10970
321,10971
318,10972
312,10973
305,10974
301,10975
299,10976
302,10977
309,10978
319,10979
327,10980
333,10981
333,10982
331,10983
329,10984
327,10985
326,10986
326,10987
330,10987
332,10988
332,10989
330,10990
328,10991
325,10992
320,10993
313,10994
308,10995
305,10996
302,10997
300,10998
299,10999
298,11000
298,11001
297,11002
295,11003
294,11004
293,11005
293,11006
296,11008
300,11009
302,11010
305,11011
306,11012
304,11013
301,11014
300,11015
299,11016
301,11017
303,11018
306,11019
306,11020
308,11021
308,11022
308,11023
310,11024
317,11025
324,11026
328,11027
331,11028
332,11029
332,11030
330,11031
327,11032
324,11033
320,11034
318,11035
316,11036
315,11037
314,11038
314,11038
315,11039
317,11040
317,11041
315,11042
309,11043
303,11044
298,11045
295,11046
292,11047
288,11048
286,11049
286,11051
290,11052
297,11053
307,11054
319,11055
327,11056
331,11057
334,11058
337,11059
338,11060
337,11061
334,11062
332,11063
328,11064
325,11065
322,11066
318,11067
314,11068
308,11069
304,11070
301,11071
301,11072
302,11073
302,11074
301,11075
299,11076
298,11077
298,11078
300,11079
302,11080
305,11081
310,11082
314,11083
316,11084
317,11085
315,11086
310,11087
306,11088
306,11089
310,11089
315,11090
319,11091
322,11092
330,11094
338,11095
344,11096
348,11097
350,11098
350,11099
344,11100
334,11101
320,11102
307,11103
299,11104
298,11105
300,11106
305,11107
312,11108
320,11109
327,11110
334,11111
338,11112
336,11113
330,11114
322,11115
313,11116
306,11117
304,11118
303,11119
304,11120
306,11121
308,11122
308,11123
306,11124
301,11125
294,11126
287,11127
287,11128
295,11129
308,11130
320,11131
329,11132
333,11133
335,11134
335,11136
331,11137
325,11138
321,11139
316,11140
311,11141
307,11142
305,11142
303,11143
303,11144
305,11145
308,11146
311,11147
313,11148
314,11149
312,11150
310,11151
309,11152
307,11153
306,11154
306,11155
304,11156
302,11157
301,11158
302,11159
304,11160
310,11161
316,11162
322,11163
323,11164
322,11165
326,11166
331,11167
337,11168
342,11169
342,11170
338,11171
331,11172
321,11173
312,11174
308,11175
304,11176
302,11177
302,11179
304,11180
307,11181
311,11182
315,11183
317,11184
317,11185
314,11186
308,11187
301,11188
296,11189
295,11190
298,11191
301,11192
304,11193
308,11193
312,11194
315,11195
315,11196
314,11197
311,11198
310,11199
308,11200
309,11201
307,11202
307,11203
308,11204
309,11205
311,11206
313,11207
314,11208
312,11209
310,11210
313,11211
317,11212
322,11213
327,11214
334,11215
339,11216
337,11217
331,11218
325,11219
319,11220
312,11222
308,11223
307,11224
306,11225
309,11226
317,11227
325,11228
332,11229
337,11230
337,11231
336,11232
332,11233
328,11234
324,11235
324,11236
326,11237
325,11238
322,11239
318,11240
312,11241
306,11242
301,11243
298,11244
295,11245
295,11245
297,11246
300,11247
302,11248
303,11249
304,11250
306,11251
309,11252
313,11253
314,11254
312,11255
310,11256
309,11257
309,11258
311,11259
313,11260
315,11261
318,11262
321,11264
326,11265
330,11266
332,11267
334,11268
333,11269
329,11270
320,11271
309,11272
300,11273
295,11274
297,11275
301,11276
305,11277
310,11278
313,11279
315,11280
313,11281
306,11282
298,11283
291,11284
288,11285
287,11286
285,11287
285,11288
284,11289
285,11290
290,11291
295,11292
300,11293
307,11294
317,11295
324,11296
329,11297
329,11297
327,11298
323,11299
317,11300
312,11301
309,11302
310,11303
311,11304
310,11305
309,11307
306,11308
305,11309
305,11310
306,11311
307,11312
306,11313
306,11314
307,11315
309,11316
310,11317
309,11318
307,11319
306,11320
303,11321
299,11322
295,11323
292,11324
292,11325
294,11326
296,11327
300,11328
305,11329
310,11330
313,11331
313,11332
312,11333
311,11334
312,11335
314,11336
317,11337
321,11338
324,11339
327,11340
327,11341
325,11342
321,11343
314,11344
311,11345
309,11346
308,11347
308,11348
308,11350
308,11350
307,11351
306,11352
308,11353
308,11354
308,11355
309,11356
312,11357
314,11358
316,11359
317,11360
316,11361
313,11362
310,11363
306,11364
305,11365
305,11366
303,11367
302,11368
303,11369
306,11370
311,11371
315,11372
318,11373
321,11374
321,11375
320,11376
318,11377
317,11378
314,11379
311,11380
307,11381
305,11382
305,11383
306,11384
309,11385
313,11386
315,11387
316,11388
316,11389
314,11390
314,11392
314,11393
311,11394
306,11395
302,11396
302,11397
307,11398
313,11399
317,11400
320,11401
320,11401
317,11402
314,11403
310,11404
307,11405
304,11406
302,11407
301,11408
299,11409
297,11410
295,11411
295,11412
299,11413
303,11414
307,11415
312,11416
318,11417
321,11418
324,11419
325,11420
325,11421
322,11422
317,11423
311,11424
306,11425
301,11426
297,11427
296,11428
297,11429
301,11430
306,11431
309,11432
310,11433
311,11435
309,11436
306,11437
306,11438
308,11439
310,11440
310,11441
310,11442
313,11443
314,11444
315,11445
314,11446
313,11447
312,11448
307,11449
302,11450
299,11451
299,11452
302,11453
306,11453
310,11454
314,11455
319,11456
323,11457
325,11458
326,11459
325,11460
324,11461
325,11462
324,11463
322,11464
321,11465
319,11466
317,11467
314,11468
310,11469
308,11470
307,11471
310,11472
313,11473
316,11474
321,11475
323,11476
322,11478
318,11479
311,11480
306,11481
304,11482
305,11483
307,11484
308,11485
310,11486
312,11487
312,11488
311,11489
309,11490
306,11491
302,11492
300,11493
301,11494
302,11495
306,11496
312,11497
316,11498
318,11499
319,11500
317,11501
313,11502
309,11503
304,11504
300,11504
298,11505
297,11506
298,11507
299,11508
301,11509
303,11510
306,11511
308,11512
308,11513
308,11514
306,11515
306,11516
310,11517
317,11518
327,11520
336,11521
341,11522
345,11523
346,11524
347,11525
349,11526
352,11527
353,11528
353,11529
351,11530
345,11531
338,11532
329,11533
320,11534
311,11535
306,11536
305,11537
307,11538
310,11539
312,11540
313,11541
312,11542
309,11543
306,11544
300,11545
293,11546
289,11547
289,11548
290,11549
290,11550
292,11551
295,11552
298,11553
303,11554
308,11555
311,11555
312,11556
311,11557
309,11558
311,11559
313,11560
313,11561
313,11563
313,11564
314,11565
319,11566
324,11567
330,11568
336,11569
339,11570
339,11571
334,11572
325,11573
317,11574
311,11575
308,11576
305,11577
303,11578
302,11579
304,11580
307,11581
311,11582
318,11583
324,11584
330,11585
335,11586
338,11587
341,11588
339,11589
335,11590
329,11591
324,11592
320,11593
317,11594
316,11595
316,11596
315,11597
313,11598
310,11599
308,11600
305,11601
303,11602
303,11603
302,11604
300,11606
299,11607
298,11607
299,11608
301,11609
303,11610
307,11611
310,11612
313,11613
318,11614
325,11615
332,11616
336,11617
338,11618
339,11619
340,11620
337,11621
329,11622
320,11623
313,11624
310,11625
310,11626
310,11627
310,11628
310,11629
312,11630
313,11631
314,11632
316,11633
316,11634
315,11635
313,11636
311,11637
310,11638
311,11639
316,11640
324,11641
332,11642
337,11643
336,11644
332,11645
326,11646
320,11648
315,11649
309,11650
304,11651
304,11652
303,11653
304,11654
303,11655
302,11656
300,11657
300,11658
298,11659
298,11659
301,11660
306,11661
310,11662
316,11663
324,11664
331,11665
334,11666
332,11667
327,11668
319,11669
313,11670
308,11671
305,11672
308,11673
311,11674
316,11675
321,11676
328,11677
332,11678
335,11679
335,11680
333,11681
328,11682
324,11683
321,11684
321,11685
319,11686
316,11687
315,11688
315,11689
315,11691
316,11692
319,11693
320,11694
320,11695
320,11696
319,11697
319,11698
317,11699
314,11700
312,11701
313,11702
317,11703
321,11704
324,11705
330,11706
335,11707
336,11708
338,11709
341,11710
344,11711
345,11711
341,11712
332,11713
321,11714
308,11715
299,11716
294,11717
292,11718
290,11719
289,11720
289,11721
290,11722
292,11723
292,11724
292,11725
292,11726
292,11727
294,11728
298,11729
304,11730
311,11731
314,11732
314,11734
313,11735
310,11736
309,11737
312,11738
315,11739
318,11740
325,11741
336,11742
346,11743
351,11744
352,11745
349,11746
340,11747
330,11748
319,11749
311,11750
305,11751
300,11752
299,11753
303,11754
309,11755
316,11756
321,11757
323,11758
322,11759
319,11760
316,11761
315,11762
315,11762
314,11763
314,11764
314,11765
312,11766
308,11767
307,11768
308,11769
309,11770
310,11771
308,11772
308,11773
309,11774
312,11776
316,11777
322,11778
328,11779
334,11780
340,11781
342,11782
340,11783
335,11784
329,11785
323,11786
319,11787
317,11788
315,11789
315,11790
318,11791
320,11792
321,11793
321,11794
320,11795
315,11796
307,11797
298,11798
292,11799
293,11800
300,11801
305,11802
308,11803
311,11804
314,11805
317,11806
319,11807
319,11808
318,11809
316,11810
314,11811
310,11812
306,11813
305,11813
307,11814
309,11815
313,11816
317,11817
321,11819
326,11820
330,11821
331,11822
331,11823
328,11824
321,11825
314,11826
308,11827
304,11828
301,11829
299,11830
297,11831
296,11832
298,11833
302,11834
305,11835
306,11836
308,11837
310,11838
313,11839
315,11840
319,11841
325,11842
331,11843
335,11844
335,11845
333,11846
329,11847
323,11848
317,11849
313,11850
312,11851
313,11852
317,11853
319,11854
320,11855
320,11856
322,11857
325,11858
324,11859
324,11860
323,11862
320,11863
316,11864
310,11865
305,11866
300,11866
299,11867
303,11868
306,11869
309,11870
311,11871
314,11872
314,11873
314,11874
313,11875
310,11876
306,11877
304,11878
302,11879
302,11880
306,11881
314,11882
322,11883
329,11884
333,11885
335,11886
334,11887
328,11888
319,11889
311,11890
305,11891
301,11892
297,11893
299,11894
306,11895
315,11896
323,11897
327,11898
327,11899
324,11900
319,11901
312,11902
306,11904
298,11905
296,11906
300,11907
305,11908
310,11909
315,11910
317,11911
316,11912
312,11913
307,11914
301,11915
297,11916
295,11917
295,11917
297,11918
301,11919
308,11920
319,11921
329,11922
339,11923
345,11924
346,11925
344,11926
336,11927
326,11928
315,11929
307,11930
302,11931
298,11932
300,11933
301,11934
302,11935
304,11936
306,11937
308,11938
311,11939
314,11940
316,11941
319,11942
321,11943
324,11944
324,11945
324,11947
323,11948
319,11949
314,11950
311,11951
308,11952
305,11953
306,11954
310,11955
319,11956
328,11957
332,11958
333,11959
329,11960
323,11961
317,11962
315,11963
313,11964
310,11965
307,11966
304,11967
301,11968
299,11968
298,11969
297,11970
298,11971
300,11972
302,11973
305,11974
306,11975
309,11976
311,11977
314,11978
316,11979
317,11980
317,11981
321,11982
326,11983
331,11984
334,11985
337,11986
338,11987
338,11988
334,11990
328,11991
322,11992
316,11993
312,11994
309,11995
307,11996
305,11997
300,11998
296,11999
294,12000
296,12001
299,12002
302,12003
305,12004
308,12005
308,12006
308,12007
305,12008
303,12009
303,12010
305,12011
307,12012
308,12013
309,12014
313,12015
317,12016
322,12017
325,12018
325,12019
322,12020
317,12020
312,12021
306,12022
302,12023
302,12024
303,12025
306,12026
307,12027
307,12028
306,12029
305,12030
304,12032
302,12033
301,12034
302,12035
306,12036
312,12037
315,12038
315,12039
317,12040
320,12041
323,12042
323,12043
324,12044
323,12045
320,12046
317,12047
314,12048
314,12049
317,12050
320,12051
325,12052
326,12053
328,12054
327,12055
322,12056
318,12057
317,12058
320,12059
321,12060
320,12061
318,12062
315,12063
310,12064
306,12065
304,12066
305,12067
305,12068
305,12069
305,12070
307,12071
317,12071
327,12072
336,12073
342,12075
343,12076
340,12077
331,12078
319,12079
310,12080
304,12081
300,12082
295,12083
293,12084
294,12085
297,12086
302,12087
310,12088
316,12089
319,12090
316,12091
310,12092
304,12093
298,12094
296,12095
296,12096
300,12097
305,12098
309,12099
312,12100
313,12101
313,12102
313,12103
312,12104
310,12105
306,12106
304,12107
304,12108
305,12109
307,12110
309,12111
310,12112
311,12113
309,12114
307,12115
303,12116
302,12118
303,12119
306,12120
309,12121
313,12122
317,12123
322,12124
327,12124
327,12125
323,12126
317,12127
315,12128
317,12129
319,12130
320,12131
318,12132
315,12133
313,12134
317,12135
323,12136
328,12137
334,12138
336,12139
338,12140
337,12141
335,12142
331,12143
327,12144
322,12145
314,12146
307,12147
301,12148
296,12149
294,12150
292,12151
291,12152
291,12153
290,12154
289,12155
289,12156
291,12157
294,12158
295,12160
294,12161
292,12162
291,12163
291,12164
293,12165
294,12166
296,12167
299,12168
303,12169
307,12170
312,12171
318,12172
329,12173
337,12174
342,12175
346,12175
348,12176
346,12177
340,12178
332,12179
322,12180
313,12181
306,12182
301,12183
297,12184
293,12185
291,12186
291,12187
291,12188
292,12189
295,12190
299,12191
303,12192
308,12193
309,12194
307,12195
304,12196
301,12197
298,12198
298,12199
301,12200
304,12201
308,12203
309,12204
310,12205
310,12206
313,12207
316,12208
318,12209
317,12210
314,12211
312,12212
312,12213
312,12214
314,12215
319,12216
325,12217
330,12218
333,12219
334,12220
336,12221
336,12222
333,12223
327,12224
320,12225
315,12226
311,12226
307,12227
305,12228
305,12229
305,12230
306,12231
307,12232
307,12233
306,12234
303,12235
299,12236
297,12237
298,12238
298,12239
297,12240
298,12241
300,12242
305,12243
311,12244
316,12246
322,12247
329,12248
332,12249
333,12250
330,12251
325,12252
319,12253
315,12254
310,12255
306,12256
303,12257
303,12258
309,12259
318,12260
326,12261
332,12262
334,12263
334,12264
328,12265
320,12266
312,12267
306,12268
302,12269
300,12270
300,12271
301,12272
302,12273
303,12274
302,12275
301,12276
302,12277
300,12278
298,12278
299,12279
300,12280
304,12281
309,12282
315,12283
321,12284
327,12285
331,12286
337,12288
343,12289
345,12290
348,12291
349,12292
345,12293
336,12294
328,12295
320,12296
316,12297
313,12298
311,12299
310,12300
311,12301
312,12302
313,12303
311,12304
307,12305
303,12306
299,12307
298,12308
297,12309
300,12310
303,12311
306,12312
308,12313
311,12314
315,12315
317,12316
319,12317
321,12318
323,12319
325,12320
323,12321
319,12322
316,12323
313,12324
314,12325
315,12326
314,12327
312,12328
311,12329
310,12329
313,12331
322,12332
332,12333
340,12334
347,12335
350,12336
348,12337
340,12338
328,12339
315,12340
306,12341
301,12342
299,12343
299,12344
304,12345
310,12346
315,12347
318,12348
318,12349
315,12350
308,12351
300,12352
293,12353
291,12354
291,12355
293,12356
295,12357
296,12358
298,12359
304,12360
317,12361
332,12362
345,12363
354,12364
358,12365
357,12366
350,12367
342,12368
335,12369
329,12370
324,12371
