7,669
317,670
317,671
317,672
317,673
317,674
317,675
317,676
317,677
317,678
318,679
318,680
318,681
318,683
318,684
318,685
318,686
318,687
318,688
317,689
317,690
317,691
317,692
317,693
317,694
317,695
317,696
317,697
318,698
318,699
318,700
318,700
319,701
318,702
318,703
319,704
319,705
318,706
318,707
318,708
318,709
318,710
318,711
318,712
317,713
318,714
318,715
318,716
318,717
318,718
318,719
319,720
318,721
319,722
319,723
319,724
319,726
318,727
318,728
318,729
318,730
319,731
318,732
318,733
318,734
318,735
318,736
318,737
319,738
319,739
319,740
319,741
319,742
319,743
319,744
319,745
319,746
319,747
319,748
319,749
318,750
318,751
318,752
318,752
318,753
318,754
318,755
318,756
318,757
319,758
319,759
319,760
319,761
319,762
319,763
319,764
319,765
318,766
318,768
318,769
318,770
318,771
317,772
318,773
317,774
317,775
318,776
318,777
318,778
318,779
318,780
318,781
318,782
318,783
318,784
318,785
318,786
318,787
318,788
318,789
318,790
317,791
317,792
317,793
317,794
317,795
317,796
317,797
317,798
317,799
318,800
318,801
318,802
318,803
318,803
318,804
318,805
318,806
317,807
317,808
317,809
317,811
317,812
317,813
317,814
317,815
317,816
317,817
318,818
318,819
318,820
318,821
318,822
318,823
318,824
318,825
318,826
318,827
318,828
318,829
318,830
317,831
317,832
317,833
317,834
317,835
317,836
317,837
318,838
318,839
318,840
318,841
318,842
318,843
318,844
318,845
318,846
318,847
318,848
318,849
318,850
317,851
317,852
317,854
317,855
317,856
317,857
318,857
318,858
318,859
318,860
318,861
318,862
319,863
318,864
319,865
318,866
318,867
318,868
318,869
317,870
317,871
317,872
317,873
317,874
317,875
317,876
317,877
318,878
318,879
318,880
318,881
318,882
318,883
318,884
318,885
318,886
318,887
317,888
317,889
317,890
317,891
317,892
317,893
317,894
317,896
317,897
317,898
317,899
318,900
318,901
318,902
318,903
318,904
318,905
318,906
318,907
318,908
317,909
317,910
317,910
317,911
317,912
317,913
316,914
317,915
317,916
317,917
317,918
317,919
317,920
317,921
317,922
317,923
317,924
317,925
317,926
317,927
316,928
316,929
316,930
316,931
316,932
316,933
316,934
316,935
316,936
316,937
316,939
316,940
317,941
317,942
316,943
317,944
317,945
316,946
316,947
316,948
316,949
316,950
315,951
315,952
315,953
315,954
315,955
315,956
316,957
316,958
316,959
316,960
316,961
316,961
316,962
316,963
316,964
316,965
315,966
315,967
315,968
315,969
314,970
314,971
314,972
314,973
314,974
314,975
314,976
314,977
314,978
314,979
314,980
314,982
315,983
315,984
315,985
315,986
315,987
314,988
314,989
314,990
314,991
314,992
314,993
314,994
313,995
314,996
314,997
314,998
314,999
314,1000
314,1001
314,1002
314,1003
314,1004
314,1005
314,1006
314,1007
314,1008
314,1009
313,1010
313,1011
313,1012
313,1013
313,1013
313,1014
313,1015
313,1016
313,1017
313,1018
313,1019
314,1020
314,1021
314,1022
314,1024
314,1025
314,1026
314,1027
313,1028
314,1029
313,1030
313,1031
313,1032
313,1033
313,1034
313,1035
313,1036
313,1037
313,1038
314,1039
314,1040
314,1041
314,1042
314,1043
314,1044
314,1045
314,1046
313,1047
313,1048
313,1049
313,1050
313,1051
313,1052
312,1053
312,1054
312,1055
312,1056
313,1057
313,1058
313,1059
313,1060
314,1061
314,1062
314,1063
314,1064
314,1064
314,1065
314,1067
313,1068
313,1069
313,1070
313,1071
313,1072
313,1073
313,1074
313,1075
313,1076
313,1077
313,1078
313,1079
314,1080
314,1081
314,1082
314,1083
314,1084
314,1085
314,1086
314,1087
313,1088
313,1089
313,1090
313,1091
313,1092
313,1093
313,1094
313,1095
313,1096
314,1097
314,1098
314,1099
314,1100
314,1101
314,1102
314,1103
314,1104
314,1105
314,1106
314,1107
314,1108
314,1110
314,1111
313,1112
313,1113
313,1114
314,1115
313,1116
313,1116
314,1117
314,1118
314,1119
314,1120
315,1121
315,1122
315,1123
315,1124
315,1125
315,1126
315,1127
314,1128
314,1129
314,1130
314,1131
314,1132
314,1133
313,1134
313,1135
314,1136
314,1137
314,1138
314,1139
315,1140
315,1141
315,1142
315,1143
315,1144
315,1145
314,1146
314,1147
314,1148
314,1149
314,1150
313,1152
313,1153
314,1154
313,1155
314,1156
314,1157
314,1158
314,1159
314,1160
314,1161
314,1162
314,1163
314,1164
314,1165
314,1166
314,1167
314,1168
314,1168
314,1169
314,1170
314,1171
314,1172
314,1173
313,1174
313,1175
314,1176
314,1177
314,1178
314,1179
314,1180
314,1181
314,1182
314,1183
314,1184
314,1185
314,1186
314,1187
314,1188
314,1189
314,1190
313,1191
313,1192
314,1193
313,1195
313,1196
314,1197
313,1198
314,1199
314,1200
314,1201
314,1202
314,1203
314,1204
314,1205
314,1206
314,1207
314,1208
314,1209
314,1210
314,1211
314,1212
314,1213
314,1214
314,1215
314,1216
314,1217
315,1218
315,1219
314,1219
314,1220
314,1221
314,1222
314,1223
314,1224
314,1225
314,1226
314,1227
314,1228
314,1229
314,1230
314,1231
314,1232
314,1233
314,1234
314,1235
314,1236
314,1238
314,1239
314,1240
315,1241
315,1242
315,1243
315,1244
315,1245
315,1246
315,1247
315,1248
315,1249
315,1250
315,1251
315,1252
314,1253
314,1254
314,1255
314,1256
314,1257
315,1258
315,1259
315,1260
315,1261
315,1262
315,1263
315,1264
315,1265
315,1266
315,1267
315,1268
315,1269
315,1270
315,1271
315,1271
315,1272
315,1273
315,1274
315,1275
315,1276
315,1277
315,1278
315,1280
316,1281
316,1282
316,1283
316,1284
316,1285
316,1286
315,1287
316,1288
315,1289
316,1290
315,1291
315,1292
315,1293
315,1294
315,1295
316,1296
316,1297
316,1298
316,1299
316,1300
316,1301
316,1302
316,1303
316,1304
316,1305
316,1306
316,1307
316,1308
316,1309
316,1310
316,1311
316,1312
316,1313
316,1314
316,1315
316,1316
316,1317
316,1318
317,1319
317,1320
317,1321
317,1323
317,1323
317,1324
317,1325
317,1326
317,1327
317,1328
317,1329
317,1330
317,1331
317,1332
316,1333
317,1334
316,1335
316,1336
316,1337
317,1338
317,1339
317,1340
317,1341
317,1342
317,1343
317,1344
317,1345
317,1346
317,1347
317,1348
317,1349
317,1350
317,1351
317,1352
317,1353
317,1354
317,1355
317,1356
317,1357
317,1358
317,1359
317,1360
317,1361
317,1362
317,1363
318,1364
317,1366
318,1367
317,1368
317,1369
317,1370
317,1371
317,1372
317,1373
317,1374
317,1375
317,1375
317,1376
317,1377
317,1378
317,1379
317,1380
317,1381
318,1382
318,1383
318,1384
318,1385
318,1386
317,1387
317,1388
317,1389
318,1390
317,1391
317,1392
317,1393
317,1394
317,1395
317,1396
317,1397
317,1398
317,1399
317,1400
318,1401
317,1402
318,1403
318,1404
318,1405
318,1406
318,1408
317,1409
317,1410
317,1411
317,1412
317,1413
317,1414
317,1415
318,1416
317,1417
317,1418
318,1419
318,1420
318,1421
318,1422
318,1423
318,1424
318,1425
318,1426
318,1426
317,1427
318,1428
317,1429
317,1430
317,1431
317,1432
317,1433
317,1434
318,1435
318,1436
318,1437
318,1438
318,1439
318,1440
318,1441
318,1442
318,1443
318,1444
318,1445
318,1446
318,1447
317,1448
318,1449
317,1451
317,1452
317,1453
317,1454
318,1455
318,1456
318,1457
318,1458
318,1459
318,1460
318,1461
318,1462
318,1463
318,1464
318,1465
318,1466
318,1467
318,1468
318,1469
318,1470
318,1471
318,1472
318,1473
318,1474
318,1475
318,1476
318,1477
318,1478
318,1478
318,1479
318,1480
318,1481
318,1482
319,1483
319,1484
319,1485
318,1486
318,1487
318,1488
318,1489
318,1490
318,1491
318,1492
318,1494
318,1495
318,1496
318,1497
317,1498
318,1499
318,1500
318,1501
318,1502
318,1503
318,1504
318,1505
318,1506
318,1507
318,1508
318,1509
318,1510
318,1511
317,1512
318,1513
317,1514
317,1515
318,1516
318,1517
318,1518
318,1519
318,1520
318,1521
318,1522
318,1523
318,1524
318,1525
318,1526
318,1527
318,1528
317,1529
317,1529
317,1530
317,1531
317,1532
317,1533
317,1534
317,1536
317,1537
317,1538
318,1539
318,1540
318,1541
318,1542
318,1543
318,1544
318,1545
318,1546
318,1547
318,1548
318,1549
318,1550
318,1551
318,1552
318,1553
318,1554
318,1555
318,1556
318,1557
318,1558
318,1559
319,1560
318,1561
319,1562
319,1563
319,1564
318,1565
318,1566
318,1567
318,1568
318,1569
318,1570
318,1571
318,1572
318,1573
318,1574
318,1575
318,1576
318,1577
318,1579
318,1580
318,1581
318,1581
318,1582
318,1583
318,1584
318,1585
318,1586
318,1587
318,1588
317,1589
317,1590
317,1591
317,1592
317,1593
317,1594
317,1595
317,1596
317,1597
318,1598
318,1599
318,1600
318,1601
318,1602
318,1603
318,1604
318,1605
318,1606
318,1607
318,1608
318,1609
318,1610
318,1611
318,1612
318,1613
318,1614
318,1615
318,1616
318,1617
318,1618
318,1619
318,1620
319,1622
319,1623
319,1624
319,1625
319,1626
319,1627
318,1628
318,1629
318,1630
318,1631
318,1632
318,1633
318,1633
318,1634
318,1635
318,1636
318,1637
318,1638
318,1639
318,1640
318,1641
318,1642
318,1643
318,1644
318,1645
318,1646
318,1647
318,1648
318,1649
318,1650
318,1651
318,1652
318,1653
318,1654
318,1655
318,1656
318,1657
319,1658
319,1659
319,1660
319,1661
319,1662
319,1664
319,1665
319,1666
319,1667
319,1668
319,1669
319,1670
319,1671
318,1672
318,1673
319,1674
318,1675
319,1676
319,1677
319,1678
319,1679
319,1680
319,1681
319,1682
319,1683
319,1684
319,1684
319,1685
319,1686
319,1687
319,1688
319,1689
319,1690
319,1691
319,1692
319,1693
319,1694
319,1695
319,1696
319,1697
319,1698
320,1699
320,1700
320,1701
320,1702
320,1703
320,1704
320,1705
320,1707
320,1708
320,1709
319,1710
320,1711
320,1712
320,1713
320,1714
320,1715
320,1716
320,1717
320,1718
320,1719
320,1720
320,1721
321,1722
321,1723
321,1724
321,1725
320,1726
321,1727
320,1728
320,1729
320,1730
320,1731
320,1732
320,1733
320,1734
320,1735
320,1736
321,1736
321,1737
321,1738
321,1739
321,1740
321,1741
322,1742
321,1743
321,1744
321,1745
321,1746
321,1747
321,1748
321,1750
321,1751
321,1752
321,1753
321,1754
321,1755
321,1756
321,1757
321,1758
321,1759
321,1760
321,1761
321,1762
321,1763
321,1764
321,1765
321,1766
321,1767
321,1768
321,1769
321,1770
320,1771
320,1772
320,1773
320,1774
321,1775
321,1776
321,1777
321,1778
321,1779
321,1780
321,1781
321,1782
321,1783
321,1784
321,1785
321,1786
321,1787
321,1788
320,1789
320,1789
320,1790
320,1792
320,1793
320,1794
320,1795
320,1796
320,1797
320,1798
320,1799
320,1800
320,1801
320,1802
320,1803
320,1804
320,1805
320,1806
320,1807
320,1808
320,1809
320,1810
320,1811
320,1812
320,1813
320,1814
320,1815
320,1816
320,1817
320,1818
320,1819
320,1820
320,1821
320,1822
320,1823
320,1824
320,1825
320,1826
320,1827
320,1828
320,1829
319,1830
320,1831
319,1832
319,1833
319,1835
319,1836
319,1837
319,1838
319,1839
319,1840
319,1841
319,1841
319,1842
319,1843
319,1844
319,1845
319,1846
319,1847
319,1848
319,1849
319,1850
319,1851
319,1852
319,1853
318,1854
318,1855
319,1856
318,1857
318,1858
318,1859
319,1860
319,1861
319,1862
318,1863
318,1864
318,1865
318,1866
318,1867
318,1868
318,1869
318,1870
318,1871
317,1872
317,1873
318,1874
317,1875
317,1876
318,1878
318,1879
318,1880
318,1881
318,1882
318,1883
318,1884
318,1885
318,1886
318,1887
317,1888
317,1889
317,1890
317,1891
317,1892
317,1893
316,1893
317,1894
317,1895
317,1896
317,1897
317,1898
317,1899
317,1900
317,1901
317,1902
317,1903
317,1904
317,1905
317,1906
317,1907
317,1908
317,1909
317,1910
317,1911
317,1912
317,1913
317,1914
317,1915
317,1916
317,1917
317,1918
317,1920
317,1921
317,1922
317,1923
317,1924
317,1925
317,1926
317,1927
317,1928
317,1929
316,1930
316,1931
316,1932
316,1933
316,1934
316,1935
316,1936
316,1937
316,1938
316,1939
316,1940
316,1941
316,1942
316,1943
316,1944
316,1944
316,1945
316,1946
316,1947
316,1948
316,1949
316,1950
316,1951
316,1952
316,1953
316,1954
316,1955
316,1956
316,1957
316,1958
316,1959
316,1960
316,1961
316,1963
316,1964
316,1965
316,1966
316,1967
316,1968
315,1969
316,1970
315,1971
315,1972
315,1973
315,1974
315,1975
315,1976
315,1977
315,1978
315,1979
315,1980
315,1981
316,1982
316,1983
316,1984
316,1985
316,1986
316,1987
316,1988
316,1989
316,1990
315,1991
315,1992
315,1993
315,1994
315,1995
315,1995
315,1996
315,1997
315,1998
315,1999
315,2000
315,2001
315,2002
315,2003
315,2004
315,2006
315,2007
315,2008
315,2009
315,2010
314,2011
315,2012
315,2013
315,2014
315,2015
315,2016
315,2017
315,2018
315,2019
315,2020
315,2021
315,2022
315,2023
315,2024
315,2025
315,2026
315,2027
315,2028
315,2029
315,2030
314,2031
314,2032
314,2033
314,2034
314,2035
315,2036
314,2037
315,2038
315,2039
315,2040
315,2041
315,2042
315,2043
315,2044
315,2045
315,2046
315,2048
315,2048
314,2049
315,2050
314,2051
314,2052
314,2053
314,2054
315,2055
315,2056
315,2057
315,2058
315,2059
315,2060
315,2061
315,2062
315,2063
315,2064
315,2065
315,2066
316,2067
316,2068
315,2069
315,2070
315,2071
315,2072
316,2073
315,2074
315,2075
315,2076
315,2077
315,2078
315,2079
315,2080
315,2081
315,2082
315,2083
315,2084
316,2085
315,2086
315,2087
315,2088
315,2089
315,2091
315,2092
315,2093
315,2094
315,2095
315,2096
315,2097
315,2098
315,2099
316,2099
316,2100
316,2101
316,2102
316,2103
316,2104
316,2105
316,2106
316,2107
316,2108
316,2109
316,2110
316,2111
316,2112
316,2113
315,2114
315,2115
316,2116
315,2117
315,2118
316,2119
316,2120
316,2121
316,2122
316,2123
316,2124
316,2125
316,2126
316,2127
316,2128
316,2129
316,2130
316,2131
316,2132
316,2134
316,2135
316,2136
316,2137
316,2138
316,2139
316,2140
316,2141
316,2142
316,2143
316,2144
316,2145
316,2146
316,2147
316,2148
316,2149
316,2150
316,2150
316,2151
316,2152
316,2153
316,2154
316,2155
316,2156
316,2157
316,2158
316,2159
316,2160
316,2161
316,2162
316,2163
316,2164
317,2165
316,2166
317,2167
316,2168
316,2169
316,2170
316,2171
316,2172
316,2173
316,2174
316,2176
316,2177
316,2178
316,2179
317,2180
317,2181
317,2182
316,2183
316,2184
316,2185
316,2186
316,2187
316,2188
316,2189
316,2190
316,2191
316,2192
316,2193
315,2194
315,2195
315,2196
315,2197
316,2198
316,2199
316,2200
316,2201
316,2202
316,2202
316,2203
316,2204
316,2205
316,2206
316,2207
316,2208
316,2209
316,2210
315,2211
315,2212
315,2213
315,2214
316,2215
316,2216
315,2217
315,2219
315,2220
315,2221
315,2222
315,2223
315,2224
315,2225
315,2226
315,2227
316,2228
316,2229
316,2230
316,2231
316,2232
316,2233
316,2234
316,2235
316,2236
316,2237
316,2238
316,2239
316,2240
317,2241
317,2242
316,2243
317,2244
316,2245
316,2246
316,2247
316,2248
316,2249
316,2250
316,2251
316,2252
316,2253
316,2253
316,2254
316,2255
316,2256
316,2257
316,2258
316,2259
316,2260
316,2262
316,2263
316,2264
316,2265
316,2266
316,2267
316,2268
316,2269
316,2270
316,2271
315,2272
315,2273
315,2274
315,2275
315,2276
315,2277
315,2278
315,2279
315,2280
315,2281
315,2282
315,2283
315,2284
316,2285
315,2286
315,2287
315,2288
315,2289
315,2290
315,2291
315,2292
315,2293
315,2294
315,2295
315,2296
315,2297
315,2298
316,2299
315,2300
316,2301
316,2302
315,2304
315,2305
315,2306
315,2306
315,2307
315,2308
315,2309
315,2310
315,2311
315,2312
315,2313
315,2314
315,2315
315,2316
315,2317
315,2318
315,2319
315,2320
315,2321
315,2322
315,2323
315,2324
315,2325
315,2326
315,2327
314,2328
314,2329
314,2330
314,2331
313,2332
313,2333
314,2334
314,2335
314,2336
314,2337
314,2338
314,2339
314,2340
314,2341
315,2342
315,2343
315,2344
315,2345
314,2347
315,2348
314,2349
314,2350
314,2351
314,2352
314,2353
314,2354
314,2355
314,2356
314,2357
314,2357
314,2358
314,2359
314,2360
315,2361
315,2362
315,2363
315,2364
315,2365
314,2366
314,2367
314,2368
314,2369
314,2370
314,2371
314,2372
314,2373
314,2374
314,2375
314,2376
314,2377
314,2378
314,2379
314,2380
314,2381
314,2382
314,2383
315,2384
314,2385
315,2386
314,2387
314,2388
314,2390
314,2391
314,2392
314,2393
314,2394
314,2395
314,2396
314,2397
314,2398
314,2399
314,2400
314,2401
314,2402
314,2403
314,2404
314,2405
314,2406
314,2407
313,2408
313,2408
313,2409
313,2410
313,2411
313,2412
313,2413
313,2414
313,2415
313,2416
313,2417
314,2418
313,2419
314,2420
313,2421
314,2422
314,2423
314,2424
314,2425
314,2426
314,2427
313,2428
313,2429
313,2430
312,2432
313,2433
313,2434
313,2435
313,2436
313,2437
313,2438
313,2439
313,2440
314,2441
314,2442
314,2443
314,2444
314,2445
314,2446
314,2447
314,2448
314,2449
314,2450
314,2451
314,2452
314,2453
314,2454
314,2455
314,2456
314,2457
314,2458
314,2459
314,2460
314,2460
314,2461
314,2462
314,2463
314,2464
314,2465
314,2466
314,2467
314,2468
314,2469
314,2470
314,2471
314,2472
314,2473
314,2475
314,2476
314,2477
314,2478
313,2479
313,2480
313,2481
313,2482
313,2483
313,2484
313,2485
313,2486
313,2487
313,2488
312,2489
312,2490
312,2491
312,2492
312,2493
312,2494
312,2495
312,2496
312,2497
312,2498
312,2499
312,2500
312,2501
312,2502
312,2503
312,2504
312,2505
312,2506
312,2507
312,2508
312,2509
312,2510
312,2511
312,2511
312,2512
312,2513
312,2514
311,2515
312,2516
312,2518
312,2519
312,2520
312,2521
312,2522
312,2523
312,2524
312,2525
312,2526
312,2527
312,2528
311,2529
312,2530
311,2531
311,2532
311,2533
311,2534
312,2535
312,2536
312,2537
312,2538
312,2539
312,2540
312,2541
312,2542
312,2543
312,2544
312,2545
312,2546
312,2547
312,2548
312,2549
312,2550
312,2551
312,2552
312,2553
312,2554
311,2555
312,2556
312,2557
311,2558
311,2560
311,2561
311,2562
311,2563
311,2564
311,2564
311,2565
311,2566
311,2567
311,2568
311,2569
311,2570
310,2571
310,2572
311,2573
311,2574
311,2575
311,2576
311,2577
311,2578
311,2579
311,2580
311,2581
311,2582
311,2583
311,2584
312,2585
312,2586
312,2587
312,2588
312,2589
312,2590
312,2591
312,2592
312,2593
312,2594
312,2595
311,2596
312,2597
311,2598
311,2599
311,2600
311,2601
311,2603
312,2604
312,2605
312,2606
312,2607
312,2608
312,2609
312,2610
312,2611
312,2612
312,2613
311,2614
311,2615
311,2615
311,2616
311,2617
311,2618
311,2619
311,2620
311,2621
311,2622
311,2623
311,2624
312,2625
311,2626
311,2627
312,2628
311,2629
312,2630
312,2631
312,2632
312,2633
312,2634
312,2635
312,2636
312,2637
313,2638
313,2639
313,2640
313,2641
313,2642
313,2643
313,2644
312,2646
312,2647
312,2648
312,2649
312,2650
312,2651
312,2652
312,2653
312,2654
312,2655
312,2656
312,2657
313,2658
313,2659
313,2660
313,2661
313,2662
313,2663
313,2664
313,2665
313,2666
313,2666
313,2667
313,2668
313,2669
313,2670
313,2671
313,2672
313,2673
313,2674
313,2675
313,2676
313,2677
313,2678
313,2679
313,2680
313,2681
313,2682
313,2683
313,2684
313,2685
313,2686
313,2688
313,2689
313,2690
313,2691
313,2692
312,2693
312,2694
312,2695
312,2696
312,2697
312,2698
312,2699
312,2700
313,2701
313,2702
313,2703
313,2704
313,2705
313,2706
313,2707
313,2708
313,2709
313,2710
313,2711
313,2712
313,2713
314,2714
313,2715
314,2716
313,2717
314,2718
313,2718
313,2719
313,2720
313,2721
313,2722
313,2723
313,2724
313,2725
313,2726
313,2727
313,2728
313,2729
313,2731
314,2732
314,2733
314,2734
314,2735
315,2736
315,2737
315,2738
315,2739
315,2740
315,2741
315,2742
315,2743
315,2744
315,2745
315,2746
314,2747
314,2748
313,2749
313,2750
313,2751
313,2752
313,2753
313,2754
312,2755
313,2756
313,2757
313,2758
313,2759
313,2760
313,2761
313,2762
313,2763
313,2764
313,2765
313,2766
313,2767
313,2768
313,2769
313,2769
313,2770
313,2771
313,2772
313,2774
313,2775
313,2776
313,2777
313,2778
313,2779
313,2780
313,2781
313,2782
313,2783
313,2784
314,2785
314,2786
313,2787
313,2788
313,2789
313,2790
313,2791
313,2792
312,2793
312,2794
312,2795
312,2796
313,2797
313,2798
313,2799
313,2800
314,2801
314,2802
314,2803
314,2804
313,2805
314,2806
314,2807
314,2808
314,2809
314,2810
313,2811
313,2812
313,2813
313,2814
313,2816
312,2817
312,2818
312,2819
312,2820
312,2821
312,2822
311,2822
311,2823
311,2824
311,2825
311,2826
312,2827
312,2828
312,2829
313,2830
312,2831
312,2832
313,2833
313,2834
313,2835
313,2836
314,2837
313,2838
313,2839
313,2840
313,2841
313,2842
312,2843
312,2844
312,2845
312,2846
311,2847
310,2848
309,2849
309,2850
309,2851
309,2852
309,2853
309,2854
310,2855
310,2856
310,2857
311,2859
311,2860
311,2861
311,2862
311,2863
311,2864
311,2865
311,2866
311,2867
311,2868
311,2869
311,2870
311,2871
311,2872
311,2873
311,2873
311,2874
311,2875
311,2876
311,2877
311,2878
311,2879
311,2880
311,2881
311,2882
311,2883
312,2884
311,2885
312,2886
312,2887
311,2888
312,2889
311,2890
312,2891
312,2892
311,2893
311,2894
311,2895
311,2896
310,2897
311,2898
310,2899
310,2900
310,2902
310,2903
310,2904
310,2905
310,2906
310,2907
310,2908
310,2909
310,2910
311,2911
310,2912
310,2913
310,2914
310,2915
310,2916
310,2917
310,2918
310,2919
311,2920
311,2921
311,2922
311,2923
311,2924
311,2925
311,2925
311,2926
311,2927
311,2928
311,2929
311,2930
311,2931
311,2932
311,2933
311,2934
312,2935
312,2936
312,2937
312,2938
313,2939
313,2940
313,2941
313,2942
313,2944
313,2945
313,2946
312,2947
312,2948
312,2949
312,2950
312,2951
312,2952
313,2953
313,2954
313,2955
312,2956
312,2957
312,2958
312,2959
312,2960
312,2961
312,2962
312,2963
312,2964
313,2965
313,2966
313,2967
313,2968
313,2969
313,2970
313,2971
312,2972
312,2973
312,2974
312,2975
312,2976
312,2976
312,2977
312,2978
312,2979
312,2980
312,2981
312,2982
312,2983
312,2984
312,2985
312,2987
312,2988
312,2989
312,2990
312,2991
312,2992
312,2993
312,2994
312,2995
312,2996
312,2997
312,2998
312,2999
312,3000
313,3001
312,3002
312,3003
313,3004
312,3005
312,3006
312,3007
312,3008
312,3009
312,3010
313,3011
313,3012
313,3013
313,3014
313,3015
313,3016
313,3017
313,3018
313,3019
313,3020
313,3021
313,3022
313,3023
313,3024
313,3025
313,3026
313,3027
313,3027
312,3028
313,3030
313,3031
313,3032
313,3033
313,3034
313,3035
313,3036
313,3037
313,3038
314,3039
314,3040
313,3041
314,3042
313,3043
314,3044
314,3045
313,3046
313,3047
313,3048
313,3049
313,3050
313,3051
314,3052
314,3053
314,3054
314,3055
314,3056
314,3057
314,3058
314,3059
314,3060
314,3061
314,3062
314,3063
315,3064
315,3065
315,3066
315,3067
316,3068
316,3069
316,3070
316,3072
316,3073
316,3074
316,3075
316,3076
315,3077
315,3078
316,3079
315,3080
315,3080
315,3081
315,3082
315,3083
315,3084
316,3085
316,3086
317,3087
317,3088
317,3089
317,3090
317,3091
317,3092
317,3093
316,3094
315,3095
316,3096
315,3097
316,3098
316,3099
316,3100
316,3101
316,3102
316,3103
316,3104
316,3105
316,3106
316,3107
316,3108
317,3109
317,3110
317,3111
317,3112
317,3113
317,3115
317,3116
317,3117
317,3118
317,3119
317,3120
317,3121
317,3122
317,3123
316,3124
316,3125
316,3126
316,3127
316,3128
315,3129
315,3130
315,3131
315,3131
315,3132
315,3133
315,3134
316,3135
315,3136
315,3137
315,3138
316,3139
315,3140
315,3141
315,3142
315,3143
315,3144
315,3145
315,3146
315,3147
315,3148
315,3149
315,3150
315,3151
315,3152
315,3153
315,3154
315,3155
315,3156
315,3158
315,3159
315,3160
315,3161
315,3162
315,3163
315,3164
315,3165
315,3166
315,3167
315,3168
314,3169
315,3170
315,3171
315,3172
315,3173
315,3174
315,3175
315,3176
315,3177
315,3178
315,3179
315,3180
316,3181
316,3182
316,3183
316,3183
317,3184
318,3185
318,3186
318,3187
317,3188
317,3189
317,3190
317,3191
317,3192
317,3193
317,3194
317,3195
317,3196
317,3197
317,3198
317,3200
316,3201
316,3202
316,3203
316,3204
315,3205
314,3206
314,3207
313,3208
313,3209
313,3210
314,3211
314,3212
314,3213
314,3214
315,3215
315,3216
315,3217
315,3218
315,3219
314,3220
314,3221
314,3222
314,3223
314,3224
314,3225
313,3226
313,3227
313,3228
313,3229
313,3230
313,3231
313,3232
314,3233
314,3234
314,3234
314,3235
314,3236
314,3237
314,3238
314,3239
314,3240
314,3241
315,3243
314,3244
315,3245
315,3246
315,3247
315,3248
316,3249
316,3250
316,3251
316,3252
316,3253
316,3254
316,3255
316,3256
316,3257
316,3258
316,3259
316,3260
316,3261
315,3262
315,3263
315,3264
315,3265
315,3266
315,3267
315,3268
314,3269
314,3270
314,3271
314,3272
314,3273
314,3274
315,3275
315,3276
315,3277
315,3278
315,3279
315,3280
315,3281
315,3282
315,3283
314,3284
314,3286
314,3287
314,3287
314,3288
314,3289
314,3290
314,3291
315,3292
314,3293
314,3294
314,3295
314,3296
314,3297
314,3298
315,3299
315,3300
315,3301
316,3302
316,3303
316,3304
315,3305
315,3306
315,3307
315,3308
315,3309
316,3310
316,3311
316,3312
317,3313
318,3314
319,3315
319,3316
319,3317
319,3318
319,3319
319,3320
319,3321
318,3322
318,3323
317,3324
317,3325
316,3326
316,3328
315,3329
315,3330
315,3331
315,3332
315,3333
315,3334
315,3335
315,3336
316,3337
315,3338
316,3338
315,3339
315,3340
315,3341
316,3342
315,3343
316,3344
315,3345
315,3346
315,3347
315,3348
314,3349
314,3350
314,3351
314,3352
314,3353
314,3354
314,3355
314,3356
314,3357
314,3358
314,3359
314,3360
314,3361
314,3362
314,3363
314,3364
314,3365
314,3366
314,3367
314,3368
314,3369
314,3371
314,3372
314,3373
314,3374
314,3375
314,3376
314,3377
314,3378
314,3379
314,3380
314,3381
314,3382
314,3383
315,3384
315,3385
316,3386
316,3387
317,3388
318,3389
318,3389
318,3390
318,3391
318,3392
318,3393
318,3394
317,3395
318,3396
317,3397
317,3398
317,3399
316,3400
316,3401
316,3402
315,3403
315,3404
315,3405
314,3406
314,3407
314,3408
314,3409
314,3410
314,3411
314,3412
314,3414
314,3415
314,3416
313,3417
313,3418
312,3419
312,3420
312,3421
313,3422
313,3423
314,3424
315,3425
315,3426
315,3427
315,3428
316,3429
316,3430
316,3431
316,3432
316,3433
316,3434
316,3435
316,3436
316,3437
315,3438
315,3439
316,3440
315,3441
316,3441
316,3442
316,3443
316,3444
316,3445
316,3446
316,3447
316,3448
316,3449
316,3450
316,3451
316,3452
316,3453
316,3454
316,3456
316,3457
316,3458
317,3459
317,3460
317,3461
317,3462
317,3463
318,3464
317,3465
317,3466
317,3467
317,3468
317,3469
317,3470
317,3471
317,3472
317,3473
317,3474
317,3475
317,3476
317,3477
317,3478
317,3479
317,3480
318,3481
318,3482
318,3483
318,3484
318,3485
318,3486
317,3487
317,3488
317,3489
317,3490
317,3491
317,3492
317,3492
317,3493
317,3494
317,3495
317,3496
317,3497
317,3499
317,3500
317,3501
317,3502
317,3503
317,3504
317,3505
317,3506
317,3507
317,3508
317,3509
317,3510
317,3511
317,3512
317,3513
317,3514
317,3515
317,3516
317,3517
317,3518
317,3519
317,3520
317,3521
317,3522
317,3523
317,3524
317,3525
317,3526
317,3527
317,3528
317,3529
317,3530
317,3531
317,3532
317,3533
317,3534
317,3535
317,3536
317,3537
317,3538
317,3539
317,3540
317,3542
318,3543
318,3544
318,3545
318,3545
318,3546
318,3547
317,3548
317,3549
316,3550
316,3551
317,3552
317,3553
317,3554
318,3555
318,3556
319,3557
319,3558
318,3559
318,3560
318,3561
319,3562
319,3563
318,3564
318,3565
318,3566
317,3567
317,3568
316,3569
316,3570
316,3571
316,3572
317,3573
317,3574
317,3575
316,3576
316,3577
316,3578
316,3579
315,3580
315,3581
315,3582
315,3584
315,3585
315,3586
315,3587
315,3588
315,3589
315,3590
315,3591
315,3592
315,3593
315,3594
314,3595
314,3596
314,3596
314,3597
314,3598
314,3599
314,3600
314,3601
314,3602
314,3603
314,3604
314,3605
314,3606
314,3607
314,3608
314,3609
314,3610
314,3611
314,3612
314,3613
314,3614
315,3615
314,3616
315,3617
315,3618
314,3619
314,3620
314,3621
314,3622
314,3623
314,3624
314,3625
313,3627
312,3628
312,3629
312,3630
311,3631
312,3632
312,3633
312,3634
313,3635
313,3636
314,3637
314,3638
314,3639
314,3640
314,3641
314,3642
314,3643
313,3644
314,3645
313,3646
313,3647
313,3648
313,3648
312,3649
312,3650
311,3651
311,3652
311,3653
312,3654
312,3655
312,3656
312,3657
312,3658
312,3659
312,3660
312,3661
312,3662
312,3663
312,3664
311,3665
311,3666
311,3667
311,3668
311,3670
311,3671
311,3672
310,3673
310,3674
310,3675
311,3676
311,3677
311,3678
311,3679
311,3680
311,3681
312,3682
311,3683
312,3684
311,3685
311,3686
311,3687
311,3688
311,3689
311,3690
311,3691
312,3692
311,3693
311,3694
311,3695
311,3696
311,3697
311,3698
312,3699
312,3699
313,3700
314,3701
314,3702
315,3703
315,3704
315,3705
315,3706
314,3707
314,3708
314,3709
314,3710
313,3712
313,3713
313,3714
313,3715
312,3716
312,3717
312,3718
312,3719
312,3720
312,3721
312,3722
312,3723
312,3724
313,3725
313,3726
313,3727
314,3728
315,3729
315,3730
315,3731
315,3732
315,3733
314,3734
314,3735
314,3736
313,3737
313,3738
313,3739
313,3740
312,3741
313,3742
312,3743
313,3744
313,3745
313,3746
313,3747
313,3748
313,3749
312,3750
312,3750
312,3751
312,3752
312,3753
312,3755
312,3756
313,3757
312,3758
313,3759
313,3760
313,3761
314,3762
314,3763
313,3764
314,3765
314,3766
314,3767
314,3768
314,3769
313,3770
313,3771
313,3772
313,3773
312,3774
312,3775
312,3776
313,3777
314,3778
314,3779
314,3780
314,3781
314,3782
314,3783
314,3784
314,3785
314,3786
315,3787
315,3788
315,3789
315,3790
315,3791
315,3792
315,3793
315,3794
315,3795
315,3796
315,3798
315,3799
315,3800
314,3801
314,3802
314,3803
314,3803
314,3804
314,3805
314,3806
314,3807
314,3808
313,3809
314,3810
313,3811
313,3812
313,3813
313,3814
313,3815
313,3816
313,3817
313,3818
313,3819
313,3820
313,3821
314,3822
314,3823
314,3824
314,3825
314,3826
314,3827
314,3828
314,3829
314,3830
315,3831
314,3832
314,3833
315,3834
315,3835
315,3836
315,3837
315,3838
315,3840
314,3841
314,3842
314,3843
314,3844
313,3845
313,3846
313,3847
312,3848
313,3849
314,3850
314,3851
314,3852
315,3853
314,3854
314,3854
314,3855
313,3856
313,3857
313,3858
312,3859
313,3860
313,3861
313,3862
313,3863
313,3864
313,3865
313,3866
312,3867
312,3868
312,3869
311,3870
311,3871
311,3872
311,3873
311,3874
311,3875
311,3876
311,3877
311,3878
311,3879
311,3880
311,3881
311,3883
311,3884
311,3885
311,3886
312,3887
312,3888
311,3889
312,3890
312,3891
312,3892
312,3893
311,3894
312,3895
311,3896
311,3897
312,3898
312,3899
312,3900
312,3901
313,3902
313,3903
313,3904
313,3905
314,3905
313,3906
314,3907
314,3908
314,3909
314,3910
314,3911
313,3912
313,3913
313,3914
313,3915
313,3916
313,3917
312,3918
313,3919
313,3920
313,3921
313,3922
313,3923
313,3924
313,3926
314,3927
314,3928
314,3929
314,3930
313,3931
313,3932
313,3933
313,3934
313,3935
313,3936
314,3937
314,3938
314,3939
315,3940
315,3941
315,3942
314,3943
314,3944
314,3945
314,3946
314,3947
314,3948
314,3949
314,3950
313,3951
314,3952
313,3953
314,3954
314,3955
314,3956
314,3957
314,3957
315,3958
315,3959
315,3960
316,3961
316,3962
316,3963
317,3964
317,3965
317,3966
317,3968
317,3969
318,3970
318,3971
318,3972
318,3973
318,3974
317,3975
317,3976
316,3977
316,3978
316,3979
316,3980
317,3981
317,3982
317,3983
317,3984
317,3985
317,3986
317,3987
317,3988
317,3989
317,3990
317,3991
317,3992
317,3993
317,3994
317,3995
318,3996
317,3997
317,3998
317,3999
317,4000
317,4001
317,4002
317,4003
317,4004
317,4005
316,4006
316,4007
316,4008
316,4008
316,4009
316,4011
316,4012
315,4013
315,4014
315,4015
315,4016
315,4017
315,4018
315,4019
315,4020
315,4021
315,4022
315,4023
316,4024
316,4025
315,4026
315,4027
315,4028
316,4029
315,4030
316,4031
316,4032
316,4033
316,4034
317,4035
317,4036
317,4037
318,4038
318,4039
319,4040
319,4041
319,4042
319,4043
319,4044
319,4045
319,4046
318,4047
318,4048
317,4049
316,4050
315,4051
315,4052
316,4054
316,4055
317,4056
317,4057
317,4058
317,4059
318,4060
318,4060
318,4061
318,4062
318,4063
318,4064
317,4065
317,4066
317,4067
317,4068
316,4069
316,4070
316,4071
315,4072
315,4073
315,4074
315,4075
315,4076
315,4077
315,4078
315,4079
315,4080
316,4081
316,4082
317,4083
317,4084
317,4085
317,4086
317,4087
317,4088
318,4089
318,4090
318,4091
318,4092
318,4093
318,4094
317,4096
317,4097
317,4098
317,4099
317,4100
317,4101
317,4102
317,4103
316,4104
316,4105
316,4106
316,4107
316,4108
316,4109
315,4110
315,4111
315,4112
315,4112
315,4113
315,4114
315,4115
315,4116
315,4117
315,4118
315,4119
315,4120
316,4121
316,4122
315,4123
316,4124
316,4125
316,4126
316,4127
316,4128
316,4129
317,4130
317,4131
317,4132
317,4133
317,4134
317,4135
317,4136
317,4137
317,4139
318,4140
318,4141
318,4142
318,4143
317,4144
317,4145
317,4146
317,4147
316,4148
316,4149
316,4150
316,4151
316,4152
316,4153
316,4154
315,4155
315,4156
314,4157
314,4158
314,4159
314,4160
315,4161
315,4162
315,4163
316,4163
316,4164
316,4165
316,4166
316,4167
316,4168
315,4169
315,4170
315,4171
315,4172
315,4173
314,4174
314,4175
314,4176
314,4177
314,4178
314,4179
315,4180
315,4182
314,4183
314,4184
314,4185
314,4186
314,4187
314,4188
314,4189
314,4190
314,4191
314,4192
314,4193
314,4194
314,4195
314,4196
314,4197
314,4198
314,4199
315,4200
315,4201
315,4202
315,4203
316,4204
316,4205
316,4206
316,4207
316,4208
317,4209
317,4210
317,4211
317,4212
318,4213
318,4214
318,4215
318,4215
318,4216
317,4217
317,4218
317,4219
317,4220
318,4221
318,4222
317,4224
317,4225
317,4226
317,4227
317,4228
316,4229
316,4230
316,4231
315,4232
315,4233
315,4234
315,4235
315,4236
315,4237
315,4238
315,4239
315,4240
315,4241
315,4242
315,4243
315,4244
316,4245
316,4246
316,4247
316,4248
316,4249
316,4250
316,4251
316,4252
315,4253
315,4254
315,4255
315,4256
315,4257
315,4258
315,4259
315,4260
315,4261
315,4262
315,4263
314,4264
314,4265
314,4267
315,4267
315,4268
314,4269
315,4270
315,4271
315,4272
315,4273
315,4274
315,4275
315,4276
315,4277
315,4278
315,4279
315,4280
315,4281
315,4282
315,4283
316,4284
316,4285
315,4286
315,4287
315,4288
315,4289
314,4290
314,4291
314,4292
314,4293
314,4294
314,4295
314,4296
314,4297
314,4298
314,4299
314,4300
314,4301
314,4302
315,4303
315,4304
315,4305
315,4306
316,4307
316,4308
316,4310
316,4311
316,4312
316,4313
316,4314
315,4315
315,4316
314,4317
314,4318
314,4318
314,4319
314,4320
314,4321
314,4322
315,4323
315,4324
315,4325
316,4326
316,4327
316,4328
315,4329
315,4330
315,4331
315,4332
316,4333
316,4334
316,4335
316,4336
315,4337
315,4338
315,4339
315,4340
315,4341
315,4342
314,4343
315,4344
314,4345
314,4346
314,4347
314,4348
314,4349
314,4350
314,4352
314,4353
314,4354
313,4355
313,4356
313,4357
313,4358
313,4359
313,4360
314,4361
314,4362
314,4363
315,4364
315,4365
316,4366
316,4367
315,4368
315,4369
315,4370
315,4370
314,4371
314,4372
314,4373
314,4374
314,4375
314,4376
314,4377
315,4378
314,4379
314,4380
314,4381
314,4382
314,4383
314,4384
314,4385
314,4386
314,4387
314,4388
314,4389
314,4390
314,4391
314,4392
314,4393
314,4395
314,4396
314,4397
313,4398
313,4399
313,4400
313,4401
312,4402
313,4403
312,4404
312,4405
312,4406
311,4407
311,4408
311,4409
311,4410
311,4411
311,4412
312,4413
312,4414
312,4415
312,4416
312,4417
313,4418
313,4419
313,4420
313,4421
313,4421
313,4422
313,4423
312,4424
311,4425
311,4426
311,4427
311,4428
312,4429
311,4430
312,4431
311,4432
311,4433
312,4434
311,4435
312,4436
312,4438
312,4439
312,4440
312,4441
312,4442
312,4443
313,4444
313,4445
313,4446
314,4447
313,4448
313,4449
313,4450
313,4451
312,4452
312,4453
312,4454
312,4455
312,4456
312,4457
312,4458
311,4459
311,4460
311,4461
311,4462
311,4463
311,4464
311,4465
311,4466
311,4467
310,4468
310,4469
310,4470
310,4471
310,4472
310,4472
310,4473
310,4474
310,4475
310,4476
311,4477
311,4478
311,4480
311,4481
311,4482
311,4483
311,4484
311,4485
311,4486
311,4487
311,4488
311,4489
311,4490
311,4491
310,4492
310,4493
309,4494
309,4495
309,4496
310,4497
310,4498
311,4499
311,4500
311,4501
311,4502
311,4503
310,4504
311,4505
311,4506
311,4507
311,4508
311,4509
311,4510
310,4511
310,4512
310,4513
310,4514
310,4515
310,4516
310,4517
310,4518
310,4519
310,4520
310,4521
310,4523
310,4524
310,4525
310,4525
310,4526
311,4527
311,4528
311,4529
311,4530
311,4531
311,4532
311,4533
311,4534
310,4535
311,4536
310,4537
310,4538
310,4539
310,4540
310,4541
310,4542
310,4543
310,4544
309,4545
309,4546
309,4547
309,4548
310,4549
310,4550
310,4551
310,4552
310,4553
310,4554
311,4555
311,4556
311,4557
311,4558
312,4559
312,4560
313,4561
312,4562
313,4563
313,4564
313,4566
313,4567
312,4568
312,4569
311,4570
311,4571
310,4572
310,4573
310,4574
311,4575
311,4576
311,4576
311,4577
311,4578
312,4579
312,4580
311,4581
312,4582
311,4583
311,4584
311,4585
312,4586
311,4587
312,4588
312,4589
312,4590
312,4591
311,4592
312,4593
312,4594
311,4595
311,4596
311,4597
311,4598
312,4599
312,4600
312,4601
313,4602
313,4603
313,4604
313,4605
313,4606
313,4608
313,4609
313,4610
313,4611
312,4612
312,4613
312,4614
313,4615
313,4616
313,4617
312,4618
313,4619
313,4620
313,4621
313,4622
313,4623
313,4624
313,4625
313,4626
313,4627
312,4627
312,4628
312,4629
311,4630
311,4631
311,4632
311,4633
311,4634
311,4635
311,4636
311,4637
311,4638
311,4639
311,4640
312,4641
312,4642
312,4643
312,4644
312,4645
312,4646
312,4647
312,4648
312,4649
312,4651
312,4652
312,4653
313,4654
313,4655
314,4656
314,4657
314,4658
314,4659
315,4660
315,4661
315,4662
316,4663
316,4664
316,4665
316,4666
316,4667
315,4668
316,4669
315,4670
315,4671
315,4672
314,4673
314,4674
314,4675
313,4676
313,4677
313,4678
314,4679
314,4679
314,4680
315,4681
314,4682
314,4683
314,4684
314,4685
314,4686
314,4687
314,4688
313,4689
313,4690
313,4691
312,4692
312,4694
312,4695
312,4696
312,4697
312,4698
312,4699
312,4700
312,4701
312,4702
312,4703
312,4704
312,4705
312,4706
312,4707
312,4708
313,4709
312,4710
312,4711
312,4712
312,4713
312,4714
312,4715
313,4716
313,4717
313,4718
314,4719
314,4720
314,4721
315,4722
315,4723
315,4724
315,4725
315,4726
315,4727
315,4728
315,4729
315,4730
315,4731
315,4731
315,4732
314,4733
314,4734
315,4736
315,4737
316,4738
316,4739
316,4740
317,4741
317,4742
317,4743
317,4744
316,4745
316,4746
315,4747
315,4748
314,4749
314,4750
314,4751
313,4752
313,4753
313,4754
313,4755
313,4756
313,4757
313,4758
313,4759
313,4760
313,4761
313,4762
313,4763
313,4764
312,4765
312,4766
313,4767
313,4768
313,4769
313,4770
314,4771
314,4772
313,4773
313,4774
313,4775
313,4776
313,4777
312,4779
312,4780
312,4781
312,4782
312,4783
312,4783
312,4784
312,4785
312,4786
312,4787
313,4788
313,4789
313,4790
313,4791
313,4792
314,4793
314,4794
315,4795
315,4796
315,4797
315,4798
315,4799
316,4800
316,4801
316,4802
316,4803
316,4804
316,4805
315,4806
314,4807
314,4808
314,4809
313,4810
313,4811
313,4812
313,4813
313,4814
313,4815
314,4816
314,4817
314,4818
315,4819
316,4820
316,4822
316,4823
316,4824
315,4825
314,4826
313,4827
313,4828
313,4829
313,4830
313,4831
312,4832
312,4833
313,4834
312,4834
313,4835
313,4836
313,4837
313,4838
313,4839
314,4840
314,4841
314,4842
314,4843
314,4844
314,4845
313,4846
313,4847
313,4848
313,4849
313,4850
313,4851
313,4852
313,4853
313,4854
313,4855
313,4856
314,4857
314,4858
314,4859
314,4860
314,4861
314,4862
314,4864
314,4865
314,4866
314,4867
314,4868
314,4869
314,4870
314,4871
313,4872
314,4873
314,4874
314,4875
315,4876
315,4877
315,4878
316,4879
316,4880
316,4881
316,4882
316,4883
315,4884
315,4885
315,4885
314,4886
314,4887
314,4888
314,4889
313,4890
313,4891
313,4892
313,4893
313,4894
313,4895
313,4896
313,4897
314,4898
314,4899
314,4900
314,4901
314,4902
314,4903
315,4904
315,4905
315,4907
315,4908
315,4909
314,4910
313,4911
313,4912
313,4913
313,4914
313,4915
313,4916
313,4917
313,4918
313,4919
314,4920
314,4921
314,4922
314,4923
314,4924
314,4925
315,4926
315,4927
316,4928
316,4929
317,4930
317,4931
317,4932
317,4933
317,4934
317,4935
317,4936
316,4937
316,4937
315,4938
315,4939
315,4940
315,4941
315,4942
314,4943
314,4944
314,4945
314,4946
314,4947
314,4948
314,4950
314,4951
314,4952
314,4953
315,4954
315,4955
315,4956
316,4957
316,4958
315,4959
315,4960
315,4961
315,4962
315,4963
315,4964
315,4965
315,4966
315,4967
316,4968
315,4969
316,4970
316,4971
316,4972
316,4973
316,4974
316,4975
316,4976
316,4977
316,4978
315,4979
315,4980
315,4981
315,4982
315,4983
315,4984
315,4985
315,4986
315,4987
315,4988
315,4988
315,4989
315,4990
314,4992
314,4993
315,4994
314,4995
314,4996
314,4997
314,4998
314,4999
315,5000
315,5001
315,5002
315,5003
315,5004
315,5005
315,5006
315,5007
315,5008
315,5009
315,5010
315,5011
314,5012
314,5013
315,5014
315,5015
315,5016
315,5017
315,5018
315,5019
315,5020
315,5021
315,5022
315,5023
315,5024
315,5025
315,5026
315,5027
316,5028
316,5029
316,5030
316,5031
316,5032
316,5033
316,5035
316,5036
316,5037
316,5038
316,5039
316,5040
316,5040
316,5041
316,5042
316,5043
316,5044
316,5045
316,5046
315,5047
315,5048
315,5049
315,5050
314,5051
314,5052
314,5053
314,5054
314,5055
315,5056
315,5057
315,5058
315,5059
316,5060
316,5061
315,5062
315,5063
315,5064
315,5065
315,5066
315,5067
315,5068
315,5069
315,5070
315,5071
315,5072
315,5073
314,5074
315,5075
314,5076
314,5078
314,5079
314,5080
314,5081
313,5082
313,5083
313,5084
313,5085
313,5086
314,5087
314,5088
314,5089
314,5090
314,5091
314,5091
314,5092
314,5093
314,5094
314,5095
314,5096
314,5097
314,5098
314,5099
314,5100
314,5101
314,5102
315,5103
315,5104
315,5105
315,5106
315,5107
316,5108
316,5109
316,5110
316,5111
316,5112
316,5113
316,5114
317,5115
317,5116
317,5117
317,5118
317,5120
317,5121
317,5122
317,5123
317,5124
316,5125
316,5126
316,5127
315,5128
315,5129
315,5130
315,5131
314,5132
314,5133
314,5134
314,5135
314,5136
314,5137
314,5138
314,5139
314,5140
314,5141
314,5142
314,5143
313,5144
313,5144
313,5145
313,5146
313,5147
313,5148
313,5149
313,5150
313,5151
313,5152
313,5153
313,5154
313,5155
313,5156
313,5157
313,5158
314,5159
314,5160
314,5161
315,5163
315,5164
315,5165
316,5166
315,5167
316,5168
315,5169
315,5170
315,5171
315,5172
315,5173
315,5174
314,5175
314,5176
314,5177
315,5178
315,5179
315,5180
315,5181
315,5182
315,5183
315,5184
316,5185
316,5186
317,5187
318,5188
318,5189
318,5190
318,5191
317,5192
317,5193
316,5194
316,5195
315,5195
315,5196
315,5197
315,5198
315,5199
314,5200
314,5201
314,5202
314,5203
314,5204
314,5206
314,5207
314,5208
314,5209
314,5210
314,5211
314,5212
314,5213
314,5214
314,5215
314,5216
314,5217
314,5218
314,5219
314,5220
314,5221
314,5222
314,5223
314,5224
314,5225
314,5226
314,5227
314,5228
314,5229
314,5230
315,5231
315,5232
314,5233
314,5234
314,5235
314,5236
314,5237
314,5238
314,5239
315,5240
314,5241
314,5242
314,5243
314,5244
314,5245
313,5246
313,5248
313,5248
313,5249
313,5250
313,5251
313,5252
313,5253
313,5254
313,5255
313,5256
313,5257
313,5258
314,5259
314,5260
314,5261
315,5262
316,5263
316,5264
317,5265
317,5266
317,5267
317,5268
316,5269
316,5270
315,5271
314,5272
314,5273
314,5274
314,5275
313,5276
313,5277
313,5278
313,5279
313,5280
314,5281
314,5282
314,5283
314,5284
315,5285
315,5286
315,5287
315,5288
316,5289
315,5291
315,5292
315,5293
315,5294
315,5295
314,5296
314,5297
314,5298
313,5299
313,5299
312,5300
312,5301
312,5302
312,5303
312,5304
312,5305
312,5306
313,5307
313,5308
313,5309
314,5310
314,5311
314,5312
314,5313
315,5314
315,5315
315,5316
314,5317
314,5318
314,5319
314,5320
313,5321
313,5322
313,5323
313,5324
313,5325
313,5326
313,5327
313,5328
313,5329
313,5330
313,5331
313,5332
313,5334
313,5335
314,5336
313,5337
314,5338
313,5339
314,5340
314,5341
314,5342
315,5343
315,5344
315,5345
315,5346
315,5347
315,5348
315,5349
315,5350
315,5350
315,5351
316,5352
316,5353
316,5354
317,5355
317,5356
317,5357
317,5358
317,5359
316,5360
316,5361
315,5362
315,5363
315,5364
315,5365
315,5366
315,5367
315,5368
315,5369
314,5370
314,5371
314,5372
314,5373
314,5374
314,5376
314,5377
314,5378
314,5379
314,5380
314,5381
315,5382
314,5383
314,5384
315,5385
315,5386
315,5387
315,5388
315,5389
315,5390
315,5391
315,5392
315,5393
316,5394
316,5395
316,5396
316,5397
316,5398
316,5399
317,5400
318,5401
319,5402
319,5402
319,5403
319,5404
319,5405
318,5406
318,5407
317,5408
317,5409
317,5410
316,5411
316,5412
315,5413
315,5414
315,5415
314,5416
314,5417
314,5419
314,5420
313,5421
313,5422
313,5423
314,5424
313,5425
314,5426
314,5427
314,5428
314,5429
314,5430
314,5431
314,5432
314,5433
315,5434
314,5435
314,5436
314,5437
314,5438
314,5439
314,5440
313,5441
313,5442
313,5443
313,5444
314,5445
314,5446
314,5447
314,5448
314,5449
313,5450
314,5451
313,5452
314,5453
313,5453
313,5454
314,5455
314,5456
314,5457
315,5458
315,5459
316,5460
316,5462
316,5463
316,5464
316,5465
315,5466
314,5467
314,5468
313,5469
313,5470
313,5471
314,5472
314,5473
314,5474
314,5475
314,5476
314,5477
314,5478
314,5479
314,5480
314,5481
314,5482
314,5483
313,5484
313,5485
313,5486
313,5487
313,5488
313,5489
313,5490
313,5491
313,5492
313,5493
313,5494
313,5495
313,5496
313,5497
313,5498
313,5499
313,5500
313,5501
313,5502
314,5504
314,5505
314,5505
313,5506
313,5507
313,5508
313,5509
313,5510
313,5511
313,5512
313,5513
314,5514
314,5515
315,5516
315,5517
315,5518
315,5519
315,5520
314,5521
314,5522
314,5523
314,5524
314,5525
315,5526
314,5527
315,5528
315,5529
315,5530
315,5531
314,5532
314,5533
314,5534
314,5535
314,5536
315,5537
315,5538
315,5539
315,5540
315,5541
315,5542
316,5543
316,5544
316,5545
316,5547
316,5548
316,5549
316,5550
316,5551
316,5552
316,5553
316,5554
316,5555
316,5556
315,5556
315,5557
314,5558
314,5559
315,5560
316,5561
317,5562
318,5563
318,5564
318,5565
319,5566
319,5567
319,5568
318,5569
318,5570
318,5571
318,5572
318,5573
318,5574
318,5575
318,5576
318,5577
318,5578
318,5579
318,5580
318,5581
317,5582
317,5583
317,5584
318,5585
319,5586
319,5587
320,5588
320,5590
320,5591
320,5592
320,5593
320,5594
320,5595
320,5596
320,5597
319,5598
319,5599
319,5600
320,5601
320,5602
320,5603
320,5604
320,5605
320,5606
320,5607
319,5608
319,5608
319,5609
319,5610
319,5611
320,5612
320,5613
320,5614
320,5615
320,5616
319,5617
319,5618
318,5619
318,5620
317,5621
316,5622
315,5623
315,5624
316,5625
317,5626
318,5627
319,5628
319,5629
319,5630
320,5632
320,5633
320,5634
320,5635
319,5636
319,5637
319,5638
319,5639
319,5640
320,5641
320,5642
320,5643
320,5644
319,5645
319,5646
318,5647
319,5648
319,5649
319,5650
319,5651
320,5652
321,5653
321,5654
321,5655
320,5656
318,5657
317,5658
316,5659
316,5659
317,5660
319,5661
319,5662
320,5663
319,5664
320,5665
319,5666
319,5667
320,5668
321,5669
322,5670
324,5671
326,5672
327,5673
329,5675
329,5676
330,5677
330,5678
330,5679
330,5680
331,5681
332,5682
333,5683
331,5684
329,5685
326,5686
324,5687
324,5688
325,5689
326,5690
325,5691
325,5692
324,5693
325,5694
326,5695
326,5696
328,5697
330,5698
332,5699
336,5700
339,5701
340,5702
338,5703
335,5704
331,5705
326,5706
323,5707
322,5708
323,5709
325,5710
327,5710
327,5711
325,5712
326,5713
327,5714
329,5715
330,5716
331,5718
331,5719
333,5720
336,5721
337,5722
339,5723
341,5724
341,5725
338,5726
336,5727
335,5728
334,5729
332,5730
331,5731
331,5732
331,5733
331,5734
331,5735
330,5736
331,5737
332,5738
334,5739
336,5740
338,5741
337,5742
335,5743
333,5744
330,5745
328,5746
327,5747
328,5748
332,5749
336,5750
340,5751
342,5752
342,5753
344,5754
346,5755
347,5756
348,5757
349,5758
352,5760
352,5761
350,5762
347,5763
343,5763
340,5764
338,5765
338,5766
339,5767
341,5768
341,5769
342,5770
342,5771
340,5772
340,5773
340,5774
341,5775
341,5776
342,5777
341,5778
341,5779
341,5780
342,5781
342,5782
342,5783
342,5784
342,5785
341,5786
341,5787
341,5788
341,5789
343,5790
348,5791
354,5792
359,5793
362,5794
363,5795
364,5796
362,5797
361,5798
357,5799
353,5800
348,5801
345,5803
343,5804
345,5805
347,5806
351,5807
354,5808
356,5809
356,5810
355,5811
352,5812
349,5813
344,5814
338,5814
335,5815
334,5816
334,5817
336,5818
337,5819
337,5820
337,5821
338,5822
339,5823
339,5824
338,5825
338,5826
339,5827
340,5828
339,5829
339,5830
339,5831
340,5832
341,5833
342,5834
341,5835
342,5836
343,5837
345,5838
347,5839
349,5840
349,5841
349,5842
350,5843
352,5844
354,5846
356,5847
357,5848
358,5849
357,5850
354,5851
353,5852
351,5853
348,5854
346,5855
345,5856
344,5857
344,5858
344,5859
345,5860
348,5861
352,5862
354,5863
356,5864
354,5865
349,5866
343,5866
339,5867
336,5868
339,5869
342,5870
346,5871
349,5872
350,5873
348,5874
345,5875
340,5876
336,5877
334,5878
332,5879
332,5880
332,5881
332,5882
331,5883
330,5884
329,5885
330,5886
331,5888
334,5889
337,5890
340,5891
341,5892
344,5893
343,5894
339,5895
334,5896
331,5897
329,5898
328,5899
327,5900
326,5901
325,5902
326,5903
326,5904
326,5905
327,5906
327,5907
328,5908
328,5909
330,5910
336,5911
341,5912
345,5913
347,5914
346,5915
344,5916
340,5917
337,5917
334,5918
333,5919
333,5920
334,5921
333,5922
332,5923
334,5924
336,5925
337,5926
338,5927
338,5928
336,5929
331,5931
326,5932
324,5933
323,5934
324,5935
325,5936
328,5937
335,5938
341,5939
347,5940
353,5941
355,5942
352,5943
349,5944
346,5945
343,5946
339,5947
337,5948
335,5949
332,5950
328,5951
325,5952
322,5953
321,5954
320,5955
320,5956
320,5957
320,5958
320,5959
319,5960
317,5961
316,5962
316,5963
316,5964
315,5965
314,5966
314,5967
316,5968
320,5968
326,5969
333,5970
338,5971
343,5972
347,5974
347,5975
342,5976
335,5977
329,5978
325,5979
322,5980
320,5981
320,5982
320,5983
321,5984
322,5985
322,5986
322,5987
319,5988
317,5989
315,5990
316,5991
317,5992
317,5993
316,5994
315,5995
314,5996
313,5997
314,5998
315,5999
318,6000
329,6001
339,6002
346,6003
349,6004
352,6005
351,6006
346,6007
339,6008
333,6009
329,6010
327,6011
328,6012
327,6013
325,6014
323,6016
320,6017
317,6018
314,6019
316,6020
320,6021
327,6021
332,6022
337,6023
337,6024
332,6025
323,6026
317,6027
313,6028
312,6029
314,6030
314,6031
314,6032
314,6033
313,6034
312,6035
310,6036
308,6037
308,6038
307,6039
306,6040
305,6041
304,6042
304,6043
304,6044
306,6045
311,6046
317,6047
321,6048
323,6049
325,6050
324,6051
321,6052
317,6053
317,6054
316,6055
317,6056
318,6057
316,6059
313,6060
312,6061
312,6062
312,6063
312,6064
313,6065
315,6066
317,6067
318,6068
323,6069
328,6070
331,6071
332,6072
330,6072
324,6073
318,6074
314,6075
311,6076
309,6077
307,6078
306,6079
308,6080
309,6081
311,6082
313,6083
315,6084
316,6085
315,6086
313,6087
311,6088
309,6089
308,6090
307,6091
306,6092
310,6093
317,6094
323,6095
329,6096
332,6097
333,6098
328,6099
323,6100
319,6102
316,6103
317,6104
320,6105
321,6106
321,6107
322,6108
319,6109
314,6110
308,6111
304,6112
304,6113
306,6114
309,6115
311,6116
315,6117
317,6118
317,6119
316,6120
314,6121
313,6122
313,6123
315,6123
317,6124
319,6125
319,6126
319,6127
318,6128
316,6129
312,6130
311,6131
310,6132
310,6133
311,6134
312,6135
312,6136
311,6137
310,6138
311,6139
313,6140
315,6141
317,6142
317,6144
314,6145
308,6146
303,6147
303,6148
307,6149
311,6150
316,6151
319,6152
319,6153
317,6154
313,6155
309,6156
307,6157
307,6158
311,6159
313,6160
313,6161
314,6162
314,6163
313,6164
313,6165
310,6166
308,6167
310,6168
310,6169
307,6170
305,6171
310,6172
314,6173
319,6174
323,6175
323,6175
320,6176
317,6177
314,6178
312,6179
313,6180
315,6181
316,6182
317,6183
317,6184
314,6185
310,6187
309,6188
308,6189
308,6190
309,6191
310,6192
313,6193
318,6194
321,6195
321,6196
317,6197
313,6198
309,6199
309,6200
314,6201
319,6202
322,6203
325,6204
323,6205
319,6206
314,6207
310,6208
306,6209
304,6210
303,6211
301,6212
298,6213
296,6214
296,6215
296,6216
296,6217
296,6218
296,6219
300,6220
308,6221
315,6222
320,6223
323,6224
325,6225
321,6226
316,6226
314,6227
312,6228
314,6230
316,6231
316,6232
312,6233
308,6234
306,6235
304,6236
302,6237
303,6238
304,6239
305,6240
308,6241
312,6242
319,6243
323,6244
326,6245
331,6246
334,6247
336,6248
333,6249
328,6250
324,6251
320,6252
318,6253
316,6254
313,6255
310,6256
306,6257
302,6258
300,6259
300,6260
302,6261
304,6262
306,6263
308,6264
310,6265
313,6266
315,6267
319,6268
323,6269
327,6270
327,6272
325,6273
321,6274
319,6275
319,6276
318,6277
314,6278
311,6278
308,6279
304,6280
301,6281
299,6282
301,6283
307,6284
314,6285
319,6286
321,6287
321,6288
318,6289
314,6290
310,6291
308,6292
309,6293
311,6294
311,6295
309,6296
309,6297
310,6298
314,6299
320,6300
325,6301
329,6302
331,6303
330,6304
324,6305
316,6306
309,6307
306,6308
306,6309
307,6310
308,6311
309,6312
309,6313
311,6315
316,6316
317,6317
317,6318
315,6319
312,6320
307,6321
304,6322
301,6323
300,6324
303,6325
304,6326
303,6327
302,6328
302,6329
310,6330
316,6331
321,6331
324,6332
321,6333
315,6334
310,6335
307,6336
307,6337
311,6338
313,6339
313,6340
314,6341
313,6342
310,6343
305,6344
302,6345
302,6346
302,6347
305,6348
307,6349
310,6350
312,6351
312,6352
311,6353
310,6354
309,6355
308,6356
308,6358
307,6359
306,6360
306,6361
306,6362
307,6363
308,6364
308,6365
310,6366
312,6367
313,6368
315,6369
317,6370
316,6371
313,6372
308,6373
305,6374
303,6375
304,6376
306,6377
306,6378
307,6379
306,6380
305,6381
306,6382
313,6383
320,6383
329,6384
336,6385
337,6386
336,6387
335,6388
330,6389
323,6390
315,6391
309,6392
304,6393
300,6394
298,6395
298,6396
303,6397
305,6398
307,6400
313,6401
320,6402
324,6403
327,6404
325,6405
323,6406
321,6407
319,6408
317,6409
312,6410
307,6411
302,6412
296,6413
291,6414
288,6415
290,6416
299,6417
305,6418
310,6419
314,6420
317,6421
317,6422
316,6423
313,6424
308,6425
304,6426
300,6427
298,6428
297,6429
295,6430
295,6431
295,6432
294,6433
293,6434
293,6434
292,6435
292,6436
292,6437
293,6438
296,6439
301,6440
306,6441
311,6443
316,6444
319,6445
318,6446
316,6447
314,6448
311,6449
308,6450
305,6451
304,6452
306,6453
309,6454
312,6455
313,6456
313,6457
311,6458
308,6459
308,6460
307,6461
312,6462
318,6463
322,6464
324,6465
323,6466
319,6467
315,6468
314,6469
312,6470
313,6471
313,6472
313,6473
310,6474
306,6475
303,6476
301,6477
302,6478
309,6479
319,6480
325,6481
328,6482
324,6483
319,6484
312,6486
306,6487
305,6487
302,6488
302,6489
301,6490
301,6491
300,6492
297,6493
293,6494
290,6495
289,6496
286,6497
283,6498
282,6499
283,6500
286,6501
290,6502
296,6503
303,6504
307,6505
312,6506
316,6507
319,6508
321,6509
324,6510
323,6511
321,6512
317,6513
314,6514
313,6515
313,6516
313,6517
310,6518
307,6519
306,6520
303,6521
298,6522
296,6523
298,6524
307,6525
315,6526
320,6528
324,6529
325,6530
325,6531
321,6532
316,6533
313,6534
313,6535
313,6536
313,6537
312,6538
310,6538
309,6539
309,6540
309,6541
310,6542
312,6543
316,6544
318,6545
317,6546
316,6547
314,6548
311,6549
310,6550
305,6551
300,6552
296,6553
295,6554
296,6555
295,6556
295,6557
298,6558
302,6559
304,6560
307,6561
306,6562
306,6563
305,6564
306,6565
305,6566
302,6567
299,6568
297,6569
297,6571
298,6572
301,6573
300,6574
300,6575
302,6576
305,6577
305,6578
304,6579
301,6580
298,6581
296,6582
294,6583
293,6584
293,6585
294,6586
296,6587
299,6588
307,6589
315,6589
321,6590
325,6591
323,6592
319,6593
313,6594
308,6595
305,6596
304,6597
304,6598
306,6599
311,6600
315,6601
316,6602
317,6603
318,6604
320,6605
322,6606
323,6607
324,6608
324,6609
324,6610
325,6611
324,6612
322,6614
319,6615
316,6616
316,6617
317,6618
316,6619
315,6620
316,6621
316,6622
315,6623
317,6624
317,6625
316,6626
312,6627
306,6628
299,6629
292,6630
289,6631
287,6632
288,6633
292,6634
299,6635
302,6636
303,6637
302,6638
301,6639
299,6640
296,6641
292,6641
290,6642
292,6643
296,6644
301,6645
306,6646
311,6647
313,6648
312,6649
311,6650
312,6651
312,6652
311,6653
309,6654
306,6656
304,6657
302,6658
301,6659
301,6660
305,6661
308,6662
310,6663
311,6664
313,6665
316,6666
319,6667
320,6668
321,6669
325,6670
326,6671
324,6672
323,6673
320,6674
316,6675
312,6676
310,6677
309,6678
309,6679
315,6680
324,6681
328,6682
329,6683
330,6684
329,6685
322,6686
311,6687
300,6688
290,6689
284,6690
285,6691
289,6692
292,6692
296,6693
300,6694
303,6695
306,6696
309,6697
310,6699
311,6700
313,6701
315,6702
317,6703
317,6704
315,6705
312,6706
307,6707
301,6708
294,6709
290,6710
288,6711
288,6712
290,6713
292,6714
295,6715
295,6716
296,6717
299,6718
303,6719
306,6720
308,6721
310,6722
313,6723
315,6724
316,6725
315,6726
314,6727
312,6728
309,6729
307,6730
303,6731
300,6732
301,6733
304,6734
307,6735
309,6736
312,6737
315,6738
320,6739
324,6740
323,6742
326,6743
325,6744
325,6745
323,6745
319,6746
315,6747
307,6748
301,6749
296,6750
294,6751
296,6752
301,6753
304,6754
309,6755
311,6756
311,6757
310,6758
308,6759
312,6760
314,6761
315,6762
317,6763
320,6764
320,6765
315,6766
310,6767
308,6768
308,6769
308,6770
309,6771
310,6772
315,6773
317,6774
321,6775
322,6776
322,6777
322,6778
319,6779
314,6780
310,6781
305,6782
301,6784
299,6785
296,6786
295,6787
296,6788
297,6789
299,6790
299,6791
299,6792
298,6793
296,6794
296,6795
301,6796
304,6796
310,6797
315,6798
318,6799
318,6800
317,6801
313,6802
310,6803
306,6804
305,6805
304,6806
305,6807
306,6808
315,6809
323,6810
329,6811
332,6812
333,6813
328,6814
320,6815
314,6816
309,6817
307,6818
304,6819
302,6820
299,6821
296,6822
294,6823
292,6824
291,6825
295,6827
300,6828
305,6829
311,6830
314,6831
317,6832
317,6833
314,6834
312,6835
311,6836
310,6837
310,6838
308,6839
305,6840
302,6841
299,6842
296,6843
297,6844
299,6845
302,6846
306,6847
309,6848
315,6848
323,6849
329,6850
334,6851
334,6852
330,6853
322,6854
314,6855
306,6856
301,6857
300,6858
301,6859
301,6860
301,6861
303,6862
310,6863
315,6864
320,6865
327,6866
329,6867
327,6868
324,6870
318,6871
312,6872
306,6873
300,6874
296,6875
294,6876
295,6877
292,6878
289,6879
287,6880
286,6881
288,6882
295,6883
302,6884
309,6885
315,6886
318,6887
319,6888
319,6889
318,6890
317,6891
315,6892
311,6893
307,6894
302,6895
301,6896
301,6897
300,6898
301,6899
305,6899
315,6900
321,6901
326,6902
330,6903
331,6904
328,6905
320,6906
312,6907
304,6908
301,6909
300,6910
300,6912
298,6913
296,6914
296,6915
302,6916
307,6917
311,6918
314,6919
316,6920
317,6921
316,6922
315,6923
313,6924
312,6925
314,6926
312,6927
307,6928
303,6929
301,6930
301,6931
304,6932
308,6933
310,6934
311,6935
312,6936
313,6937
312,6938
313,6939
313,6940
312,6941
311,6942
311,6943
308,6944
306,6945
304,6946
302,6947
300,6948
297,6949
295,6950
292,6950
290,6951
289,6952
291,6953
294,6955
306,6956
319,6957
329,6958
335,6959
337,6960
332,6961
323,6962
312,6963
302,6964
295,6965
290,6966
290,6967
291,6968
295,6969
299,6970
303,6971
308,6972
312,6973
314,6974
316,6975
317,6976
320,6977
319,6978
318,6979
319,6980
320,6981
318,6982
316,6983
311,6984
308,6985
311,6986
311,6987
310,6988
311,6989
311,6990
311,6991
311,6992
311,6993
312,6994
316,6995
321,6996
322,6998
321,6999
321,7000
322,7001
321,7002
322,7003
322,7003
318,7004
314,7005
307,7006
300,7007
296,7008
295,7009
295,7010
295,7011
296,7012
298,7013
299,7014
302,7015
305,7016
307,7017
309,7018
311,7019
312,7020
314,7021
317,7022
318,7023
317,7024
314,7025
309,7026
304,7027
298,7028
292,7029
291,7030
294,7031
298,7032
302,7033
311,7034
317,7035
320,7036
322,7037
323,7038
323,7040
321,7041
319,7042
314,7043
309,7044
305,7045
303,7046
298,7047
296,7048
299,7049
303,7050
309,7051
315,7052
320,7053
323,7054
325,7054
325,7055
324,7056
321,7057
316,7058
311,7059
308,7060
307,7061
305,7062
305,7063
309,7064
311,7065
312,7066
312,7067
311,7068
309,7069
310,7070
311,7071
311,7072
312,7073
313,7074
314,7075
312,7076
308,7077
304,7078
302,7079
306,7080
312,7081
318,7083
322,7084
326,7085
329,7086
331,7087
331,7088
329,7089
327,7090
322,7091
314,7092
307,7093
299,7094
291,7095
288,7096
290,7097
294,7098
303,7099
315,7100
326,7101
332,7102
333,7103
329,7104
322,7105
313,7106
301,7106
295,7107
289,7108
286,7109
287,7110
288,7111
287,7112
285,7113
287,7114
289,7115
293,7116
302,7117
310,7118
317,7119
323,7120
326,7121
327,7122
325,7123
321,7124
316,7126
313,7127
314,7128
314,7129
311,7130
308,7131
305,7132
306,7133
305,7134
303,7135
302,7136
305,7137
308,7138
308,7139
309,7140
310,7141
310,7142
308,7143
308,7144
307,7145
306,7146
307,7147
309,7148
314,7149
319,7150
323,7151
324,7152
322,7153
319,7154
312,7155
308,7156
308,7157
307,7157
309,7158
312,7159
312,7160
307,7161
303,7162
302,7163
302,7164
302,7165
305,7166
308,7168
309,7169
310,7170
311,7171
314,7172
313,7173
312,7174
310,7175
306,7176
306,7177
305,7178
305,7179
306,7180
306,7181
308,7182
312,7183
316,7184
317,7185
317,7186
316,7187
314,7188
310,7189
306,7190
303,7191
303,7192
305,7193
309,7194
311,7195
315,7196
320,7197
325,7198
326,7199
328,7200
328,7201
328,7202
326,7203
320,7204
317,7205
317,7206
317,7207
316,7208
317,7208
316,7209
313,7211
310,7212
308,7213
307,7214
306,7215
307,7216
308,7217
305,7218
303,7219
302,7220
303,7221
306,7222
307,7223
309,7224
311,7225
312,7226
313,7227
315,7228
318,7229
320,7230
319,7231
317,7232
313,7233
311,7234
311,7235
312,7236
313,7237
315,7238
313,7239
309,7240
303,7241
298,7242
296,7243
297,7244
298,7245
300,7246
304,7247
308,7248
309,7249
307,7250
307,7251
304,7252
299,7254
293,7255
289,7256
286,7257
286,7258
289,7259
296,7260
304,7261
316,7261
328,7262
335,7263
339,7264
340,7265
336,7266
332,7267
326,7268
318,7269
312,7270
311,7271
309,7272
305,7273
305,7274
305,7275
306,7276
308,7277
310,7278
310,7279
310,7280
309,7281
305,7282
302,7283
300,7284
302,7285
305,7286
308,7287
311,7288
314,7289
320,7290
325,7291
326,7292
328,7293
329,7294
327,7296
320,7297
310,7298
302,7299
294,7300
292,7301
291,7302
291,7303
293,7304
297,7305
300,7306
302,7307
305,7308
310,7309
316,7310
321,7311
326,7312
330,7312
332,7313
332,7314
328,7315
324,7316
318,7317
309,7318
304,7319
300,7320
296,7321
298,7322
304,7323
314,7324
324,7325
332,7326
335,7327
333,7328
329,7329
322,7330
312,7331
305,7332
300,7333
298,7334
296,7335
292,7336
291,7337
293,7339
299,7340
309,7341
322,7342
335,7343
345,7344
351,7345
351,7346
343,7347
329,7348
314,7349
301,7350
289,7351
282,7352
278,7353
279,7354
286,7355
296,7356
308,7357
320,7358
331,7359
336,7360
334,7361
326,7362
314,7363
302,7364
292,7364
286,7365
283,7366
283,7367
282,7368
284,7369
286,7370
287,7371
289,7372
291,7373
296,7374
305,7375
315,7376
326,7377
336,7378
341,7379
340,7380
334,7382
325,7383
314,7384
304,7385
298,7386
296,7387
293,7388
294,7389
296,7390
298,7391
301,7392
308,7393
320,7394
330,7395
337,7396
341,7397
344,7398
343,7399
335,7400
324,7401
315,7402
308,7403
303,7404
300,7405
297,7406
295,7407
299,7408
302,7409
307,7410
313,7411
319,7412
322,7413
325,7414
328,7415
330,7415
329,7416
325,7417
318,7418
311,7419
304,7420
298,7421
293,7422
290,7424
288,7425
287,7426
287,7427
289,7428
292,7429
294,7430
297,7431
301,7432
309,7433
315,7434
317,7435
318,7436
320,7437
323,7438
322,7439
320,7440
316,7441
313,7442
310,7443
309,7444
307,7445
306,7446
307,7447
310,7448
314,7449
320,7450
325,7451
328,7452
327,7453
326,7454
324,7455
319,7456
313,7457
307,7458
303,7459
300,7460
297,7461
294,7462
292,7463
293,7464
295,7465
300,7467
306,7468
312,7468
316,7469
323,7470
331,7471
335,7472
338,7473
340,7474
338,7475
333,7476
328,7477
322,7478
316,7479
311,7480
309,7481
309,7482
309,7483
307,7484
303,7485
298,7486
294,7487
291,7488
290,7489
289,7490
288,7491
290,7492
295,7493
299,7494
303,7495
306,7496
306,7497
305,7498
305,7499
307,7500
310,7501
311,7502
312,7503
311,7504
308,7505
302,7506
297,7507
295,7508
302,7510
308,7511
315,7512
321,7513
323,7514
323,7515
319,7516
314,7517
310,7518
309,7519
313,7519
318,7520
320,7521
322,7522
326,7523
328,7524
328,7525
327,7526
329,7527
331,7528
329,7529
324,7530
320,7531
315,7532
311,7533
313,7534
315,7535
316,7536
320,7537
327,7538
331,7539
333,7540
332,7541
328,7542
322,7543
315,7544
309,7545
304,7546
303,7547
302,7548
304,7549
306,7550
309,7552
313,7553
315,7554
317,7555
315,7556
311,7557
305,7558
297,7559
291,7560
285,7561
280,7562
278,7563
277,7564
280,7565
287,7566
293,7567
298,7568
303,7569
307,7570
308,7571
307,7571
304,7572
300,7573
299,7574
300,7575
299,7576
299,7577
301,7578
306,7579
311,7580
315,7581
318,7582
316,7583
311,7584
309,7585
307,7586
308,7587
312,7588
319,7589
325,7590
329,7591
330,7592
328,7593
322,7595
317,7596
313,7597
308,7598
308,7599
309,7600
308,7601
310,7602
312,7603
315,7604
316,7605
315,7606
320,7607
327,7608
332,7609
336,7610
336,7611
333,7612
329,7613
323,7614
318,7615
317,7616
320,7617
323,7618
327,7619
329,7620
328,7621
326,7622
323,7623
320,7623
315,7624
310,7625
304,7626
297,7627
291,7628
287,7629
287,7630
290,7631
293,7632
295,7633
297,7634
297,7635
299,7636
302,7638
304,7639
306,7640
307,7641
304,7642
301,7643
299,7644
298,7645
299,7646
301,7647
305,7648
307,7649
308,7650
306,7651
303,7652
298,7653
295,7654
297,7655
299,7656
302,7657
305,7658
304,7659
305,7660
304,7661
299,7662
296,7663
297,7664
304,7665
311,7666
316,7667
318,7668
318,7669
317,7670
317,7671
322,7672
330,7673
339,7674
345,7674
348,7675
349,7676
345,7677
337,7678
329,7680
319,7681
314,7682
314,7683
316,7684
318,7685
320,7686
320,7687
319,7688
316,7689
310,7690
305,7691
305,7692
306,7693
310,7694
315,7695
321,7696
326,7697
327,7698
323,7699
320,7700
323,7701
324,7702
328,7703
331,7704
330,7705
325,7706
318,7707
311,7708
303,7709
296,7710
294,7711
300,7712
304,7713
309,7714
313,7715
316,7716
316,7717
314,7718
308,7719
300,7720
294,7721
293,7723
294,7724
295,7725
295,7726
295,7727
293,7727
292,7728
294,7729
298,7730
304,7731
310,7732
315,7733
319,7734
321,7735
320,7736
320,7737
322,7738
324,7739
324,7740
323,7741
320,7742
317,7743
314,7744
313,7745
314,7746
315,7747
318,7748
320,7749
322,7750
324,7751
324,7752
323,7753
322,7754
323,7755
325,7756
324,7757
321,7758
319,7759
318,7760
316,7761
312,7762
306,7763
301,7764
297,7766
295,7767
295,7768
296,7769
300,7770
304,7771
308,7772
313,7773
317,7774
321,7775
323,7776
323,7777
322,7778
317,7778
312,7779
307,7780
303,7781
301,7782
302,7783
303,7784
305,7785
309,7786
314,7787
319,7788
323,7789
328,7790
332,7791
332,7792
331,7793
330,7794
326,7795
319,7796
311,7797
301,7798
293,7799
288,7800
286,7801
288,7802
292,7803
296,7804
299,7805
302,7806
303,7808
306,7809
311,7810
316,7811
320,7812
325,7813
332,7814
337,7815
341,7816
342,7817
340,7818
335,7819
328,7820
318,7821
311,7822
304,7823
303,7824
303,7825
302,7826
305,7827
311,7828
316,7829
318,7830
317,7830
316,7831
315,7832
315,7833
316,7834
317,7835
314,7836
311,7837
306,7838
300,7839
292,7840
285,7841
282,7842
281,7843
281,7844
282,7845
283,7846
285,7847
285,7848
287,7849
289,7851
291,7852
291,7853
293,7854
297,7855
301,7856
307,7857
311,7858
315,7859
320,7860
328,7861
335,7862
339,7863
339,7864
339,7865
335,7866
326,7867
314,7868
303,7869
296,7870
294,7871
295,7872
299,7873
304,7874
309,7875
317,7876
324,7877
327,7878
325,7879
322,7880
318,7881
317,7881
318,7882
319,7883
319,7884
317,7885
314,7886
310,7887
306,7888
305,7889
306,7890
311,7891
324,7892
333,7894
336,7895
337,7896
338,7897
335,7898
329,7899
323,7900
316,7901
311,7902
307,7903
305,7904
303,7905
305,7906
311,7907
322,7908
331,7909
336,7910
338,7911
338,7912
335,7913
328,7914
322,7915
319,7916
316,7917
312,7918
310,7919
306,7920
303,7921
301,7922
301,7923
301,7924
299,7925
298,7926
296,7927
293,7928
295,7929
300,7930
306,7931
313,7932
319,7933
324,7933
325,7934
325,7936
325,7937
325,7938
323,7939
319,7940
314,7941
308,7942
303,7943
298,7944
294,7945
292,7946
292,7947
293,7948
302,7949
311,7950
317,7951
323,7952
329,7953
331,7954
329,7955
323,7956
313,7957
305,7958
298,7959
297,7960
299,7961
305,7962
312,7963
319,7964
323,7965
324,7966
322,7967
319,7968
316,7969
312,7970
310,7971
307,7972
306,7973
307,7974
309,7975
312,7976
318,7977
323,7979
324,7980
324,7981
322,7982
319,7983
315,7984
311,7985
309,7985
306,7986
302,7987
299,7988
296,7989
295,7990
296,7991
296,7992
296,7993
300,7994
308,7995
315,7996
322,7997
327,7998
329,7999
329,8000
324,8001
322,8002
321,8003
320,8004
320,8005
320,8006
319,8007
314,8008
312,8009
313,8010
317,8011
319,8012
323,8013
328,8014
330,8015
327,8016
324,8017
323,8018
319,8019
316,8020
315,8022
310,8023
303,8024
297,8025
292,8026
289,8027
289,8028
292,8029
294,8030
301,8031
313,8032
322,8033
329,8034
337,8035
342,8036
340,8037
332,8037
321,8038
309,8039
301,8040
294,8041
291,8042
290,8043
293,8044
297,8045
301,8046
305,8047
308,8048
313,8049
318,8050
321,8051
322,8052
322,8053
321,8054
320,8055
317,8056
313,8057
310,8058
308,8059
306,8060
304,8061
298,8062
292,8064
289,8065
290,8066
292,8067
292,8068
293,8069
295,8070
297,8071
300,8072
303,8073
310,8074
323,8075
332,8076
337,8077
338,8078
336,8079
329,8080
319,8081
308,8082
299,8083
292,8084
290,8085
290,8086
291,8087
298,8088
308,8088
318,8089
328,8090
336,8091
342,8092
347,8093
346,8094
343,8095
337,8096
327,8097
317,8098
306,8099
295,8100
288,8101
287,8102
290,8103
294,8104
299,8105
305,8107
312,8108
317,8109
320,8110
321,8111
324,8112
328,8113
329,8114
326,8115
320,8116
318,8117
319,8118
319,8119
322,8120
325,8121
327,8122
328,8123
323,8124
317,8125
310,8126
306,8127
303,8128
298,8129
294,8130
291,8131
288,8132
287,8133
289,8134
294,8135
303,8136
315,8137
327,8138
337,8139
343,8139
345,8140
342,8141
336,8142
331,8143
325,8144
317,8145
310,8146
304,8147
299,8148
295,8150
292,8151
290,8152
289,8153
291,8154
296,8155
302,8156
308,8157
320,8158
333,8159
342,8160
349,8161
351,8162
350,8163
343,8164
333,8165
320,8166
311,8167
307,8168
311,8169
317,8170
319,8171
321,8172
321,8173
322,8174
321,8175
317,8176
312,8177
308,8178
305,8179
303,8180
303,8181
302,8182
301,8183
299,8184
298,8185
297,8186
296,8187
296,8188
297,8189
299,8190
301,8192
302,8192
303,8193
305,8194
309,8195
312,8196
314,8197
313,8198
314,8199
315,8200
318,8201
318,8202
316,8203
313,8204
312,8205
309,8206
303,8207
300,8208
300,8209
302,8210
308,8211
314,8212
318,8213
319,8214
320,8215
320,8216
316,8217
313,8218
312,8219
312,8220
312,8221
313,8222
311,8223
308,8224
306,8225
303,8226
301,8227
301,8228
303,8229
303,8230
300,8231
297,8232
294,8233
293,8235
295,8236
299,8237
306,8238
317,8239
326,8240
335,8241
340,8242
342,8243
339,8243
329,8244
319,8245
313,8246
310,8247
308,8248
306,8249
303,8250
304,8251
311,8252
318,8253
326,8254
334,8255
341,8256
344,8257
344,8258
340,8259
331,8260
322,8261
313,8262
306,8263
300,8264
296,8265
293,8266
290,8267
287,8268
284,8269
281,8270
281,8271
284,8272
291,8273
302,8274
315,8275
327,8276
339,8278
346,8279
349,8280
345,8281
337,8282
325,8283
313,8284
308,8285
306,8286
304,8287
301,8288
297,8289
294,8290
291,8291
288,8292
285,8293
284,8294
284,8295
285,8295
287,8296
291,8297
295,8298
302,8299
317,8300
334,8301
346,8302
354,8303
357,8304
353,8305
344,8306
330,8307
315,8308
301,8309
292,8310
290,8311
292,8312
295,8313
299,8314
305,8315
311,8316
316,8317
321,8318
325,8320
325,8321
324,8322
322,8323
318,8324
312,8325
310,8326
310,8327
314,8328
318,8329
323,8330
326,8331
329,8332
331,8333
333,8334
333,8335
331,8336
326,8337
321,8338
317,8339
310,8340
304,8341
301,8342
303,8343
306,8344
315,8345
326,8346
335,8347
345,8347
352,8348
352,8349
346,8350
338,8351
325,8352
313,8353
306,8354
302,8355
301,8356
299,8357
296,8358
294,8359
298,8360
302,8361
307,8363
311,8364
314,8365
315,8366
312,8367
308,8368
308,8369
307,8370
306,8371
307,8372
307,8373
305,8374
304,8375
306,8376
306,8377
304,8378
302,8379
300,8380
299,8381
299,8382
301,8383
306,8384
315,8385
323,8386
327,8387
327,8388
326,8389
327,8390
327,8391
329,8392
330,8393
328,8394
324,8395
319,8396
313,8397
307,8398
302,8398
301,8399
299,8400
298,8401
301,8402
305,8403
308,8404
309,8406
309,8407
308,8408
309,8409
311,8410
314,8411
317,8412
323,8413
326,8414
328,8415
329,8416
326,8417
322,8418
321,8419
320,8420
319,8421
318,8422
314,8423
310,8424
306,8425
304,8426
301,8427
298,8428
297,8429
298,8430
299,8431
303,8432
311,8433
317,8434
319,8435
320,8436
320,8437
318,8438
315,8439
311,8440
309,8441
310,8442
312,8443
313,8444
312,8445
311,8446
310,8448
307,8449
309,8450
311,8451
313,8451
316,8452
319,8453
320,8454
318,8455
315,8456
311,8457
305,8458
301,8459
297,8460
293,8461
292,8462
295,8463
302,8464
309,8465
316,8466
322,8467
324,8468
326,8469
329,8470
327,8471
323,8472
322,8473
318,8474
313,8475
308,8476
307,8477
308,8478
310,8479
312,8480
313,8481
313,8482
309,8483
304,8484
299,8485
293,8486
291,8487
290,8488
296,8489
306,8491
319,8492
333,8493
348,8494
359,8495
362,8496
358,8497
350,8498
339,8499
329,8500
317,8501
305,8502
293,8502
285,8503
281,8504
282,8505
284,8506
289,8507
297,8508
306,8509
315,8510
321,8511
325,8512
329,8513
330,8514
328,8515
323,8516
315,8517
307,8518
302,8519
297,8520
294,8521
292,8522
295,8523
298,8524
303,8525
307,8526
310,8527
312,8528
311,8529
307,8530
304,8531
302,8532
305,8534
310,8535
313,8536
314,8537
312,8538
308,8539
303,8540
299,8541
299,8542
302,8543
307,8544
313,8545
316,8546
316,8547
314,8548
313,8549
311,8550
308,8551
306,8552
307,8553
309,8553
310,8554
311,8555
313,8556
314,8557
318,8558
326,8559
335,8560
341,8561
345,8562
345,8563
343,8564
343,8565
339,8566
335,8567
333,8568
330,8569
326,8570
319,8571
311,8572
303,8573
298,8574
299,8576
302,8577
304,8578
308,8579
313,8580
317,8581
319,8582
318,8583
314,8584
309,8585
305,8586
302,8587
299,8588
297,8589
297,8590
297,8591
298,8592
301,8593
303,8594
306,8595
307,8596
308,8597
306,8598
303,8599
302,8600
305,8601
310,8602
317,8603
321,8604
322,8605
322,8605
319,8606
314,8607
310,8608
308,8609
308,8610
308,8611
309,8612
310,8613
312,8614
316,8615
321,8616
326,8617
327,8619
324,8620
319,8621
313,8622
313,8623
315,8624
317,8625
320,8626
324,8627
328,8628
332,8629
335,8630
333,8631
328,8632
321,8633
314,8634
305,8635
297,8636
290,8637
286,8638
288,8639
292,8640
296,8641
301,8642
312,8643
322,8644
328,8645
331,8646
330,8647
327,8648
321,8649
312,8650
302,8651
292,8652
286,8653
282,8654
278,8655
275,8656
275,8656
276,8657
277,8658
280,8659
288,8660
298,8662
306,8663
311,8664
315,8665
315,8666
313,8667
315,8668
317,8669
322,8670
326,8671
332,8672
337,8673
339,8674
339,8675
336,8676
332,8677
327,8678
320,8679
317,8680
319,8681
318,8682
317,8683
315,8684
312,8685
309,8686
305,8687
303,8688
304,8689
306,8690
311,8691
317,8692
324,8693
330,8694
334,8695
335,8696
335,8697
334,8698
329,8699
321,8700
317,8701
318,8702
318,8704
317,8705
317,8706
315,8707
312,8708
311,8708
317,8709
322,8710
327,8711
329,8712
329,8713
324,8714
317,8715
310,8716
301,8717
294,8718
291,8719
291,8720
290,8721
288,8722
289,8723
291,8724
293,8725
296,8726
299,8727
301,8728
304,8729
311,8730
320,8731
327,8732
333,8733
336,8734
336,8735
330,8736
322,8737
312,8738
304,8739
299,8740
296,8741
294,8742
292,8743
291,8744
292,8745
297,8747
306,8748
316,8749
326,8750
339,8751
349,8752
355,8753
356,8754
352,8755
346,8756
340,8757
333,8758
324,8759
316,8760
309,8760
303,8761
300,8762
299,8763
298,8764
300,8765
302,8766
303,8767
301,8768
297,8769
293,8770
291,8771
291,8772
295,8773
299,8774
302,8775
304,8776
306,8777
309,8778
311,8779
313,8780
314,8781
313,8782
311,8783
310,8784
309,8785
305,8786
302,8787
301,8788
302,8790
304,8791
306,8792
311,8793
314,8794
313,8795
313,8796
312,8797
313,8798
316,8799
319,8800
320,8801
322,8802
321,8803
318,8804
313,8805
310,8806
308,8807
307,8808
310,8809
313,8810
314,8811
317,8812
321,8812
324,8813
324,8814
322,8815
320,8816
320,8817
320,8818
322,8819
326,8820
329,8821
333,8822
335,8823
334,8824
330,8825
327,8826
325,8827
325,8828
326,8829
327,8830
327,8832
325,8833
321,8834
316,8835
310,8836
308,8837
312,8838
315,8839
314,8840
312,8841
314,8842
325,8843
334,8844
341,8845
345,8846
345,8847
341,8848
331,8849
317,8850
302,8851
292,8852
286,8853
285,8854
287,8855
290,8856
295,8857
303,8858
310,8859
315,8860
317,8861
314,8862
309,8863
303,8863
298,8864
293,8865
288,8866
286,8867
286,8868
288,8869
290,8870
291,8871
293,8872
299,8873
305,8875
309,8876
311,8877
314,8878
317,8879
317,8880
312,8881
308,8882
306,8883
305,8884
302,8885
299,8886
295,8887
295,8888
296,8889
299,8890
307,8891
316,8892
325,8893
333,8894
339,8895
342,8896
344,8897
342,8898
336,8899
326,8900
315,8901
304,8902
301,8903
305,8904
312,8905
322,8906
331,8907
336,8908
338,8909
335,8910
329,8911
324,8912
320,8913
315,8914
310,8914
304,8915
299,8916
296,8918
291,8919
287,8920
282,8921
280,8922
278,8923
278,8924
281,8925
286,8926
291,8927
297,8928
302,8929
306,8930
307,8931
309,8932
311,8933
312,8934
312,8935
311,8936
311,8937
312,8938
314,8939
316,8940
319,8941
323,8942
325,8943
325,8944
323,8945
322,8946
322,8947
326,8948
329,8949
332,8950
334,8951
333,8952
332,8953
330,8954
326,8955
325,8956
328,8957
331,8958
330,8960
328,8961
326,8962
324,8963
322,8964
322,8965
324,8966
326,8967
327,8967
329,8968
332,8969
332,8970
330,8971
325,8972
319,8973
311,8974
308,8975
313,8976
321,8977
327,8978
330,8979
330,8980
325,8981
318,8982
310,8983
301,8984
293,8985
291,8986
290,8987
292,8988
293,8989
295,8990
301,8991
308,8992
312,8993
313,8994
311,8995
307,8996
302,8997
296,8998
288,8999
282,9000
281,9001
284,9003
288,9004
295,9005
306,9006
316,9007
322,9008
323,9009
322,9010
321,9011
320,9012
322,9013
324,9014
325,9015
323,9016
322,9017
319,9018
313,9018
305,9019
300,9020
296,9021
292,9022
289,9023
287,9024
284,9025
284,9026
285,9027
287,9028
290,9029
293,9030
300,9031
308,9032
314,9033
319,9034
327,9035
334,9036
337,9037
339,9038
340,9039
341,9040
342,9041
341,9042
338,9043
334,9044
331,9046
330,9047
329,9048
325,9049
319,9050
312,9051
305,9052
298,9053
291,9054
292,9055
295,9056
301,9057
307,9058
314,9059
318,9060
319,9061
315,9062
309,9063
303,9064
298,9065
295,9066
295,9067
297,9068
302,9069
308,9069
312,9070
316,9071
320,9072
323,9073
323,9074
320,9075
315,9076
310,9077
305,9078
300,9079
295,9080
294,9081
293,9082
294,9083
296,9084
298,9085
302,9086
304,9088
306,9089
309,9090
311,9091
313,9092
316,9093
318,9094
319,9095
320,9096
321,9097
321,9098
319,9099
319,9100
318,9101
316,9102
316,9103
319,9104
321,9105
322,9106
322,9107
323,9108
322,9109
320,9110
315,9111
309,9112
303,9113
298,9114
297,9115
300,9116
305,9117
309,9118
311,9119
310,9120
308,9121
306,9121
307,9122
316,9123
331,9124
348,9125
358,9126
362,9127
359,9128
350,9129
337,9131
323,9132
308,9133
296,9134
288,9135
284,9136
283,9137
286,9138
292,9139
298,9140
303,9141
306,9142
310,9143
311,9144
311,9145
313,9146
315,9147
313,9148
311,9149
312,9150
311,9151
313,9152
316,9153
318,9154
317,9155
316,9156
313,9157
307,9158
299,9159
292,9160
288,9161
290,9162
295,9163
303,9164
312,9165
323,9166
333,9167
337,9168
337,9169
334,9170
331,9171
326,9172
317,9172
311,9174
307,9175
305,9176
308,9177
308,9178
309,9179
310,9180
313,9181
315,9182
319,9183
323,9184
325,9185
324,9186
319,9187
316,9188
317,9189
319,9190
319,9191
319,9192
320,9193
318,9194
314,9195
308,9196
302,9197
298,9198
297,9199
299,9200
301,9201
302,9202
302,9203
301,9204
301,9205
302,9206
307,9207
315,9208
321,9209
325,9210
328,9211
326,9212
319,9213
310,9214
302,9216
296,9217
295,9218
300,9219
305,9220
308,9221
311,9222
314,9223
318,9224
320,9225
320,9225
321,9226
323,9227
325,9228
324,9229
322,9230
321,9231
320,9232
321,9233
324,9234
325,9235
324,9236
323,9237
321,9238
317,9239
314,9240
312,9241
309,9242
308,9243
308,9244
308,9245
310,9246
312,9247
315,9248
319,9249
322,9250
323,9251
324,9252
322,9253
318,9254
314,9255
312,9256
311,9257
309,9259
307,9260
306,9261
306,9262
306,9263
304,9264
303,9265
303,9266
304,9267
311,9268
325,9269
335,9270
344,9271
348,9272
345,9273
337,9274
325,9275
314,9276
306,9276
303,9277
304,9278
306,9279
307,9280
308,9281
308,9282
309,9283
310,9284
309,9285
308,9286
305,9287
305,9288
304,9289
303,9290
303,9291
305,9292
307,9293
309,9294
308,9295
307,9296
306,9297
308,9298
311,9299
319,9300
327,9302
333,9303
335,9304
335,9305
333,9306
329,9307
324,9308
320,9309
314,9310
308,9311
303,9312
302,9313
299,9314
296,9315
293,9316
292,9317
293,9318
297,9319
305,9320
311,9321
316,9322
318,9323
316,9324
309,9325
303,9326
299,9327
297,9327
299,9328
308,9329
319,9330
329,9331
337,9332
344,9333
349,9334
349,9335
347,9336
343,9337
339,9338
332,9339
323,9340
312,9341
303,9342
299,9344
297,9345
295,9346
293,9347
295,9348
299,9349
307,9350
313,9351
317,9352
320,9353
323,9354
325,9355
327,9356
331,9357
333,9358
337,9359
340,9360
339,9361
332,9362
322,9363
314,9364
305,9365
297,9366
289,9367
285,9368
285,9369
287,9370
291,9371
295,9372
297,9373
300,9374
305,9375
315,9376
324,9377
331,9378
337,9379
339,9379
337,9380
332,9381
324,9382
316,9383
308,9384
305,9385
307,9387
307,9388
305,9389
302,9390
299,9391
297,9392
297,9393
297,9394
297,9395
300,9396
305,9397
312,9398
322,9399
331,9400
336,9401
342,9402
344,9403
344,9404
341,9405
337,9406
332,9407
325,9408
315,9409
306,9410
297,9411
293,9412
292,9413
291,9414
290,9415
290,9416
290,9417
292,9418
296,9419
303,9420
313,9421
330,9422
344,9423
352,9424
354,9425
353,9426
349,9427
342,9428
334,9430
325,9431
316,9431
309,9432
304,9433
300,9434
297,9435
295,9436
293,9437
292,9438
292,9439
294,9440
299,9441
305,9442
309,9443
313,9444
315,9445
316,9446
317,9447
321,9448
324,9449
324,9450
326,9451
330,9452
338,9453
346,9454
351,9455
351,9456
346,9457
337,9458
326,9459
315,9460
307,9461
305,9462
306,9463
307,9464
308,9465
310,9466
313,9467
315,9468
316,9469
317,9470
316,9472
313,9473
309,9474
306,9475
304,9476
302,9477
300,9478
301,9479
304,9480
309,9481
310,9482
308,9482
305,9483
302,9484
299,9485
297,9486
296,9487
297,9488
299,9489
302,9490
306,9491
312,9492
316,9493
319,9494
320,9495
321,9496
319,9497
315,9498
311,9499
309,9500
307,9501
305,9502
307,9503
311,9504
313,9505
314,9506
313,9507
311,9508
310,9509
308,9510
306,9511
305,9512
304,9513
304,9515
304,9516
307,9517
312,9518
318,9519
325,9520
329,9521
331,9522
335,9523
339,9524
343,9525
343,9526
340,9527
334,9528
326,9529
317,9530
308,9531
304,9532
300,9533
298,9534
297,9535
299,9535
301,9536
301,9537
300,9538
302,9539
305,9540
310,9541
312,9542
317,9543
326,9544
334,9545
339,9546
342,9547
342,9548
340,9549
334,9550
325,9551
316,9552
306,9553
298,9554
293,9555
290,9556
287,9558
289,9559
296,9560
305,9561
313,9562
319,9563
322,9564
322,9565
316,9566
307,9567
298,9568
292,9569
290,9570
296,9571
311,9572
329,9573
343,9574
351,9575
352,9576
346,9577
337,9578
327,9579
315,9580
302,9581
294,9582
291,9583
290,9584
291,9585
292,9586
294,9587
296,9587
297,9588
299,9589
302,9590
304,9591
305,9592
304,9593
305,9594
307,9595
311,9596
318,9597
326,9598
332,9600
336,9601
339,9602
340,9603
337,9604
330,9605
321,9606
312,9607
303,9608
296,9609
292,9610
292,9611
294,9612
297,9613
298,9614
299,9615
299,9616
298,9617
300,9618
304,9619
311,9620
316,9621
321,9622
323,9623
325,9624
325,9625
324,9626
322,9627
321,9628
319,9629
316,9630
310,9631
304,9632
301,9633
303,9634
309,9635
318,9636
325,9637
329,9638
331,9639
331,9639
330,9640
327,9641
323,9643
317,9644
314,9645
315,9646
319,9647
321,9648
319,9649
316,9650
313,9651
310,9652
310,9653
315,9654
322,9655
326,9656
330,9657
333,9658
332,9659
330,9660
327,9661
323,9662
315,9663
306,9664
297,9665
291,9666
287,9667
286,9668
287,9669
289,9670
296,9671
305,9672
313,9673
321,9674
328,9675
330,9676
326,9677
319,9678
310,9679
304,9680
304,9681
310,9682
315,9683
320,9684
323,9686
322,9687
319,9688
316,9689
313,9690
307,9691
303,9692
302,9692
304,9693
306,9694
309,9695
311,9696
313,9697
314,9698
311,9699
306,9700
301,9701
300,9702
303,9703
308,9704
314,9705
320,9706
325,9707
327,9708
327,9709
328,9710
333,9711
339,9712
343,9713
343,9714
339,9715
330,9716
321,9717
311,9718
300,9719
291,9720
286,9721
287,9722
293,9723
298,9724
307,9725
318,9726
326,9728
331,9729
332,9730
330,9731
325,9732
316,9733
309,9734
305,9735
303,9736
303,9737
304,9738
303,9739
301,9740
295,9741
290,9742
288,9743
297,9743
310,9744
323,9745
334,9746
341,9747
345,9748
345,9749
343,9750
338,9751
334,9752
329,9753
324,9754
316,9755
308,9756
300,9757
291,9758
284,9759
280,9760
280,9761
283,9762
290,9763
298,9764
306,9765
312,9766
319,9767
330,9768
341,9769
350,9771
356,9772
359,9773
358,9774
352,9775
341,9776
328,9777
318,9778
313,9779
307,9780
302,9781
297,9782
293,9783
291,9784
290,9785
292,9786
298,9787
304,9788
309,9789
313,9790
315,9791
316,9792
314,9793
309,9794
304,9794
302,9795
299,9796
296,9797
295,9798
295,9799
297,9800
299,9801
302,9802
307,9803
310,9804
311,9805
313,9806
318,9807
322,9808
326,9809
329,9810
330,9811
330,9812
327,9814
323,9815
319,9816
315,9817
311,9818
308,9819
309,9820
312,9821
313,9822
312,9823
308,9824
303,9825
296,9826
293,9827
293,9828
293,9829
294,9830
296,9831
296,9832
296,9833
296,9834
297,9835
302,9836
308,9837
315,9838
322,9839
327,9840
329,9841
329,9842
328,9843
327,9844
325,9845
321,9846
314,9846
307,9847
303,9848
299,9849
297,9850
299,9851
303,9852
307,9853
312,9854
316,9856
322,9857
329,9858
335,9859
339,9860
340,9861
337,9862
333,9863
327,9864
323,9865
320,9866
317,9867
315,9868
314,9869
312,9870
311,9871
311,9872
311,9873
312,9874
313,9875
317,9876
321,9877
324,9878
326,9879
328,9880
328,9881
327,9882
323,9883
320,9884
318,9885
315,9886
314,9887
312,9888
311,9889
309,9890
307,9891
307,9892
307,9893
308,9894
310,9895
311,9896
313,9897
315,9897
317,9899
318,9900
318,9901
319,9902
318,9903
316,9904
313,9905
312,9906
312,9907
314,9908
317,9909
320,9910
321,9911
317,9912
311,9913
304,9914
297,9915
291,9916
293,9917
296,9918
300,9919
304,9920
308,9921
310,9922
312,9923
314,9924
313,9925
310,9926
308,9927
311,9928
313,9929
316,9930
320,9931
324,9932
325,9933
324,9934
321,9935
316,9936
309,9937
302,9938
297,9939
293,9940
291,9942
291,9943
296,9944
299,9945
304,9946
310,9947
317,9948
323,9949
327,9949
327,9950
325,9951
325,9952
325,9953
328,9954
331,9955
332,9956
334,9957
332,9958
327,9959
321,9960
316,9961
316,9962
317,9963
320,9964
324,9965
325,9966
323,9967
318,9968
311,9969
304,9970
298,9971
296,9972
297,9973
301,9974
305,9975
309,9976
313,9977
316,9978
316,9979
313,9980
308,9981
306,9982
303,9984
302,9985
300,9986
301,9987
303,9988
306,9989
308,9990
308,9991
306,9992
303,9993
301,9994
301,9995
300,9996
300,9997
303,9998
307,9999
311,10000
316,10001
318,10001
318,10002
317,10003
316,10004
316,10005
318,10006
320,10007
319,10008
320,10009
321,10010
325,10011
330,10012
335,10013
337,10014
334,10015
328,10016
320,10017
314,10018
309,10019
307,10020
307,10021
311,10022
313,10023
316,10024
323,10025
331,10027
338,10028
344,10029
347,10030
346,10031
344,10032
341,10033
336,10034
330,10035
324,10036
320,10037
313,10038
304,10039
295,10040
289,10041
285,10042
283,10043
284,10044
289,10045
297,10046
309,10047
324,10048
338,10049
348,10050
352,10051
351,10052
344,10052
332,10053
319,10054
310,10055
306,10056
304,10057
305,10058
308,10059
311,10060
313,10061
312,10062
311,10063
310,10064
312,10065
316,10066
320,10067
324,10068
325,10070
327,10071
328,10072
327,10073
328,10074
330,10075
329,10076
325,10077
318,10078
311,10079
303,10080
294,10081
287,10082
283,10083
279,10084
280,10085
288,10086
301,10087
316,10088
332,10089
344,10090
350,10091
349,10092
347,10093
341,10094
334,10095
327,10096
317,10097
308,10098
302,10099
297,10100
293,10101
290,10102
287,10103
284,10104
281,10104
281,10105
284,10106
289,10107
294,10108
298,10109
300,10110
300,10112
299,10113
299,10114
303,10115
309,10116
314,10117
319,10118
320,10119
319,10120
315,10121
311,10122
309,10123
304,10124
299,10125
296,10126
295,10127
294,10128
297,10129
299,10130
303,10131
307,10132
308,10133
311,10134
317,10135
323,10136
327,10137
329,10138
331,10139
334,10140
335,10141
334,10142
332,10143
330,10144
326,10145
325,10146
327,10147
333,10148
336,10149
340,10150
342,10151
341,10152
336,10153
328,10155
319,10156
308,10156
299,10157
292,10158
291,10159
292,10160
297,10161
303,10162
310,10163
315,10164
316,10165
317,10166
320,10167
324,10168
327,10169
330,10170
335,10171
336,10172
336,10173
333,10174
328,10175
321,10176
312,10177
306,10178
303,10179
304,10180
309,10181
319,10182
324,10183
328,10184
329,10185
326,10186
322,10187
316,10188
309,10189
304,10190
300,10191
299,10192
299,10193
305,10194
312,10195
319,10196
323,10198
325,10199
324,10200
324,10201
324,10202
327,10203
328,10204
327,10205
326,10206
324,10207
322,10208
320,10208
318,10209
314,10210
309,10211
301,10212
293,10213
290,10214
292,10215
298,10216
305,10217
312,10218
322,10219
330,10220
336,10221
336,10222
334,10223
329,10224
325,10225
318,10226
309,10227
302,10228
300,10229
300,10230
301,10231
302,10232
305,10233
308,10234
312,10235
315,10236
317,10237
317,10238
317,10240
318,10241
321,10242
324,10243
327,10244
332,10245
339,10246
344,10247
347,10248
347,10249
344,10250
335,10251
323,10252
310,10253
298,10254
289,10255
283,10256
284,10257
290,10258
298,10259
308,10259
316,10260
325,10261
334,10262
338,10263
342,10264
345,10265
345,10266
340,10267
332,10268
323,10269
312,10270
304,10271
298,10272
295,10273
294,10274
293,10275
293,10276
290,10277
286,10278
288,10279
294,10280
301,10281
308,10283
314,10284
320,10285
322,10286
319,10287
314,10288
307,10289
304,10290
301,10291
299,10292
300,10293
299,10294
302,10295
308,10296
315,10297
320,10298
323,10299
324,10300
324,10301
323,10302
323,10303
327,10304
334,10305
338,10306
341,10307
341,10308
338,10309
332,10310
322,10311
313,10311
303,10312
294,10313
288,10314
288,10315
290,10316
292,10317
298,10318
307,10319
315,10320
320,10321
323,10322
324,10323
328,10324
330,10326
331,10327
330,10328
326,10329
319,10330
310,10331
300,10332
293,10333
291,10334
296,10335
305,10336
313,10337
319,10338
327,10339
334,10340
335,10341
331,10342
324,10343
317,10344
306,10345
295,10346
287,10347
282,10348
279,10349
280,10350
281,10351
284,10352
287,10353
290,10354
292,10355
293,10356
294,10357
294,10358
292,10359
289,10360
290,10361
292,10362
298,10363
308,10363
317,10364
322,10365
324,10366
323,10368
324,10369
326,10370
328,10371
330,10372
329,10373
327,10374
323,10375
318,10376
315,10377
311,10378
308,10379
306,10380
305,10381
308,10382
314,10383
320,10384
323,10385
324,10386
323,10387
320,10388
320,10389
321,10390
325,10391
329,10392
332,10393
336,10394
342,10395
348,10396
350,10397
347,10398
340,10399
330,10400
320,10401
312,10402
310,10403
308,10404
306,10405
306,10406
309,10407
311,10408
312,10409
310,10411
307,10412
308,10413
311,10414
314,10415
316,10416
320,10416
326,10417
334,10418
338,10419
337,10420
333,10421
324,10422
311,10423
299,10424
292,10425
292,10426
292,10427
292,10428
292,10429
290,10430
288,10431
286,10432
285,10433
286,10434
291,10435
297,10436
306,10437
319,10438
332,10439
343,10440
350,10441
353,10442
351,10443
343,10444
332,10445
321,10446
313,10447
309,10448
305,10449
301,10450
296,10451
293,10452
295,10454
300,10455
305,10456
310,10457
312,10458
313,10459
311,10460
309,10461
309,10462
313,10463
316,10464
321,10465
325,10466
327,10467
327,10468
325,10468
322,10469
319,10470
316,10471
316,10472
315,10473
313,10474
313,10475
312,10476
311,10477
308,10478
306,10479
303,10480
300,10481
295,10482
290,10483
289,10484
295,10485
305,10486
317,10487
327,10488
333,10489
335,10490
332,10491
326,10492
318,10493
314,10494
314,10496
316,10497
317,10498
316,10499
315,10500
313,10501
312,10502
311,10503
313,10504
314,10505
314,10506
311,10507
307,10508
301,10509
295,10510
292,10511
289,10512
288,10513
289,10514
289,10515
290,10516
291,10517
291,10518
289,10519
287,10519
284,10520
283,10521
284,10522
286,10523
289,10524
293,10525
298,10526
305,10527
312,10528
319,10529
324,10530
329,10531
334,10532
335,10533
335,10534
330,10535
323,10536
318,10537
314,10539
311,10540
312,10541
315,10542
319,10543
320,10544
319,10545
317,10546
314,10547
310,10548
306,10549
302,10550
297,10551
292,10552
288,10553
286,10554
284,10555
284,10556
285,10557
287,10558
287,10559
287,10560
287,10561
287,10562
288,10563
287,10564
288,10565
288,10566
290,10567
293,10568
297,10569
301,10570
304,10571
306,10571
306,10572
306,10573
305,10574
305,10575
304,10576
301,10577
299,10578
297,10579
296,10580
296,10582
296,10583
297,10584
298,10585
299,10586
300,10587
301,10588
304,10589
311,10590
319,10591
327,10592
332,10593
336,10594
337,10595
334,10596
329,10597
322,10598
316,10599
310,10600
307,10601
308,10602
316,10603
326,10604
337,10605
345,10606
350,10607
352,10608
350,10609
345,10610
338,10611
331,10612
327,10613
322,10614
315,10615
309,10616
301,10617
295,10618
291,10619
289,10620
288,10621
286,10622
285,10624
285,10624
285,10625
286,10626
287,10627
289,10628
292,10629
294,10630
296,10631
298,10632
299,10633
299,10634
300,10635
300,10636
300,10637
301,10638
301,10639
301,10640
301,10641
300,10642
300,10643
300,10644
301,10645
301,10646
301,10647
302,10648
303,10649
303,10650
304,10651
304,10652
304,10653
305,10654
306,10655
308,10656
313,10657
320,10658
327,10659
334,10660
339,10661
342,10662
344,10663
343,10664
342,10665
341,10667
340,10668
338,10669
336,10670
332,10671
328,10672
324,10673
320,10674
315,10675
311,10676
307,10677
304,10677
302,10678
301,10679
300,10680
298,10681
298,10682
299,10683
300,10684
301,10685
301,10686
301,10687
301,10688
301,10689
301,10690
302,10691
304,10692
305,10693
305,10694
305,10695
304,10696
303,10697
302,10698
302,10699
302,10700
302,10701
303,10702
304,10703
305,10704
305,10705
305,10706
306,10707
306,10708
305,10710
304,10711
303,10712
303,10713
303,10714
303,10715
302,10716
301,10717
301,10718
301,10719
300,10720
300,10721
300,10722
300,10723
300,10724
300,10725
300,10726
300,10727
300,10728
301,10729
301,10729
302,10730
304,10731
305,10732
306,10733
307,10734
309,10735
310,10736
313,10737
317,10738
320,10739
324,10740
325,10741
325,10742
325,10743
322,10744
320,10745
319,10746
318,10747
317,10748
316,10749
315,10750
314,10752
313,10753
312,10754
311,10755
310,10756
309,10757
308,10758
307,10759
306,10760
305,10761
305,10762
304,10763
303,10764
303,10765
303,10766
303,10767
303,10768
303,10769
302,10770
301,10771
301,10772
300,10773
300,10774
299,10775
299,10776
299,10777
300,10778
300,10779
302,10780
303,10780
304,10781
304,10782
304,10783
304,10784
304,10785
303,10786
303,10787
302,10788
301,10789
301,10790
301,10791
300,10792
300,10793
300,10795
300,10796
300,10797
299,10798
299,10799
299,10800
299,10801
300,10802
299,10803
299,10804
300,10805
300,10806
300,10807
300,10808
300,10809
300,10810
301,10811
301,10812
302,10813
302,10814
303,10815
304,10816
306,10817
307,10818
309,10819
310,10820
311,10821
312,10822
311,10823
310,10824
310,10825
309,10826
308,10827
307,10828
306,10829
305,10830
305,10831
304,10832
303,10832
302,10833
301,10834
300,10835
299,10836
299,10838
298,10839
298,10840
298,10841
298,10842
298,10843
298,10844
299,10845
299,10846
299,10847
300,10848
300,10849
301,10850
303,10851
304,10852
304,10853
305,10854
304,10855
304,10856
303,10857
302,10858
301,10859
300,10860
299,10861
299,10862
298,10863
298,10864
298,10865
297,10866
297,10867
297,10868
297,10869
297,10870
297,10871
297,10872
297,10873
297,10874
297,10875
297,10876
297,10877
297,10878
297,10880
297,10881
297,10882
297,10883
297,10884
298,10884
298,10885
299,10886
299,10887
299,10888
300,10889
300,10890
300,10891
300,10892
301,10893
301,10894
301,10895
302,10896
302,10897
302,10898
302,10899
302,10900
302,10901
302,10902
302,10903
302,10904
301,10905
301,10906
300,10907
300,10908
299,10909
300,10910
299,10911
299,10912
299,10913
299,10914
298,10915
298,10916
298,10917
298,10918
298,10919
298,10920
298,10921
298,10923
298,10924
297,10925
297,10926
297,10927
297,10928
297,10929
297,10930
297,10931
297,10932
297,10933
297,10934
297,10935
297,10936
298,10936
299,10937
301,10938
302,10939
304,10940
305,10941
305,10942
305,10943
305,10944
304,10945
304,10946
303,10947
302,10948
302,10949
301,10950
300,10951
299,10952
299,10953
298,10954
298,10955
298,10956
298,10957
298,10958
297,10959
297,10960
298,10961
299,10962
300,10963
300,10964
301,10966
302,10967
302,10968
303,10969
304,10970
305,10971
306,10972
307,10973
308,10974
308,10975
308,10976
307,10977
307,10978
306,10979
305,10980
304,10981
303,10982
303,10983
302,10984
302,10985
302,10986
302,10987
302,10987
302,10988
303,10989
303,10990
304,10991
304,10992
304,10993
305,10994
304,10995
304,10996
304,10997
303,10998
303,10999
303,11000
303,11001
303,11002
302,11003
302,11004
302,11005
302,11006
302,11008
303,11009
303,11010
303,11011
303,11012
303,11013
303,11014
304,11015
304,11016
304,11017
305,11018
305,11019
305,11020
305,11021
306,11022
306,11023
306,11024
306,11025
307,11026
307,11027
307,11028
307,11029
308,11030
308,11031
309,11032
309,11033
310,11034
310,11035
310,11036
311,11037
311,11038
312,11039
313,11039
313,11040
313,11041
313,11042
313,11043
314,11044
314,11045
314,11046
315,11047
315,11048
316,11049
316,11051
316,11052
317,11053
317,11054
318,11055
318,11056
319,11057
320,11058
319,11059
320,11060
319,11061
319,11062
319,11063
318,11064
318,11065
318,11066
317,11067
316,11068
316,11069
315,11070
315,11071
315,11072
315,11073
315,11074
315,11075
314,11076
314,11077
314,11078
314,11079
314,11080
314,11081
314,11082
314,11083
315,11084
314,11085
315,11086
315,11087
315,11088
315,11089
315,11090
315,11090
316,11091
316,11092
316,11094
316,11095
316,11096
316,11097
316,11098
316,11099
316,11100
316,11101
316,11102
316,11103
316,11104
317,11105
317,11106
317,11107
317,11108
317,11109
318,11110
318,11111
318,11112
318,11113
318,11114
318,11115
318,11116
318,11117
318,11118
318,11119
318,11120
318,11121
318,11122
319,11123
319,11124
319,11125
319,11126
319,11127
319,11128
319,11129
319,11130
319,11131
319,11132
318,11133
318,11134
318,11136
318,11137
318,11138
317,11139
317,11140
317,11141
317,11142
317,11143
317,11143
317,11144
317,11145
317,11146
317,11147
317,11148
317,11149
317,11150
317,11151
317,11152
317,11153
317,11154
317,11155
317,11156
317,11157
317,11158
317,11159
317,11160
317,11161
317,11162
317,11163
317,11164
318,11165
318,11166
319,11167
319,11168
319,11169
319,11170
320,11171
320,11172
320,11173
321,11174
321,11175
322,11176
322,11177
322,11179
322,11180
321,11181
321,11182
320,11183
320,11184
320,11185
319,11186
319,11187
319,11188
319,11189
318,11190
318,11191
318,11192
318,11193
318,11194
318,11194
318,11195
318,11196
318,11197
318,11198
318,11199
318,11200
318,11201
318,11202
319,11203
319,11204
319,11205
319,11206
319,11207
319,11208
319,11209
319,11210
320,11211
320,11212
320,11213
320,11214
320,11215
320,11216
320,11217
320,11218
320,11219
320,11220
320,11222
320,11223
321,11224
321,11225
321,11226
321,11227
321,11228
321,11229
322,11230
322,11231
322,11232
321,11233
321,11234
322,11235
321,11236
321,11237
321,11238
321,11239
322,11240
322,11241
322,11242
322,11243
322,11244
322,11245
322,11246
322,11246
322,11247
322,11248
322,11249
322,11250
322,11251
323,11252
323,11253
323,11254
323,11255
323,11256
324,11257
324,11258
324,11259
324,11260
325,11261
325,11262
325,11264
325,11265
325,11266
325,11267
325,11268
325,11269
325,11270
325,11271
325,11272
325,11273
325,11274
325,11275
324,11276
324,11277
324,11278
324,11279
324,11280
324,11281
324,11282
324,11283
324,11284
324,11285
324,11286
324,11287
324,11288
324,11289
324,11290
324,11291
325,11292
325,11293
325,11294
325,11295
325,11296
325,11297
325,11298
325,11299
325,11299
325,11300
325,11301
325,11302
325,11303
325,11304
325,11305
325,11307
325,11308
325,11309
325,11310
326,11311
326,11312
326,11313
326,11314
326,11315
326,11316
326,11317
326,11318
326,11319
326,11320
326,11321
326,11322
327,11323
327,11324
327,11325
327,11326
327,11327
328,11328
328,11329
328,11330
328,11331
329,11332
329,11333
329,11334
329,11335
329,11336
329,11337
329,11338
329,11339
329,11340
329,11341
329,11342
330,11343
330,11344
330,11345
330,11346
330,11347
331,11348
331,11350
331,11351
331,11351
331,11352
331,11353
331,11354
331,11355
331,11356
331,11357
331,11358
331,11359
331,11360
331,11361
331,11362
331,11363
331,11364
331,11365
332,11366
332,11367
332,11368
332,11369
333,11370
333,11371
333,11372
333,11373
333,11374
333,11375
333,11376
333,11377
333,11378
333,11379
333,11380
332,11381
332,11382
332,11383
332,11384
332,11385
332,11386
332,11387
333,11388
332,11389
333,11390
333,11392
333,11393
333,11394
333,11395
333,11396
333,11397
333,11398
333,11399
333,11400
333,11401
333,11402
333,11403
333,11403
333,11404
333,11405
333,11406
334,11407
334,11408
334,11409
334,11410
334,11411
334,11412
334,11413
334,11414
334,11415
334,11416
334,11417
334,11418
334,11419
334,11420
334,11421
334,11422
334,11423
334,11424
334,11425
334,11426
335,11427
335,11428
335,11429
335,11430
335,11431
335,11432
335,11433
335,11435
335,11436
335,11437
335,11438
335,11439
335,11440
335,11441
335,11442
335,11443
335,11444
335,11445
335,11446
335,11447
335,11448
335,11449
336,11450
336,11451
336,11452
336,11453
336,11454
336,11454
336,11455
336,11456
336,11457
336,11458
336,11459
336,11460
336,11461
336,11462
336,11463
336,11464
336,11465
336,11466
336,11467
336,11468
336,11469
336,11470
336,11471
336,11472
336,11473
335,11474
336,11475
335,11476
335,11478
335,11479
335,11480
335,11481
335,11482
335,11483
335,11484
335,11485
335,11486
335,11487
336,11488
336,11489
336,11490
335,11491
335,11492
335,11493
335,11494
335,11495
335,11496
335,11497
334,11498
334,11499
334,11500
334,11501
334,11502
334,11503
334,11504
334,11505
334,11505
334,11506
334,11507
334,11508
334,11509
334,11510
334,11511
334,11512
334,11513
335,11514
334,11515
335,11516
335,11517
335,11518
335,11520
335,11521
335,11522
335,11523
335,11524
335,11525
335,11526
335,11527
335,11528
335,11529
335,11530
335,11531
335,11532
336,11533
335,11534
335,11535
335,11536
335,11537
335,11538
335,11539
335,11540
335,11541
335,11542
335,11543
335,11544
335,11545
335,11546
335,11547
335,11548
335,11549
335,11550
335,11551
335,11552
335,11553
335,11554
335,11555
335,11556
335,11557
334,11557
334,11558
334,11559
334,11560
334,11561
334,11563
334,11564
334,11565
334,11566
334,11567
334,11568
334,11569
334,11570
334,11571
334,11572
334,11573
334,11574
334,11575
333,11576
333,11577
333,11578
333,11579
332,11580
332,11581
332,11582
332,11583
332,11584
331,11585
331,11586
331,11587
331,11588
331,11589
331,11590
330,11591
330,11592
330,11593
330,11594
330,11595
330,11596
329,11597
329,11598
329,11599
329,11600
329,11601
329,11602
329,11603
328,11604
328,11606
328,11607
328,11608
328,11609
328,11609
328,11610
328,11611
328,11612
328,11613
328,11614
327,11615
327,11616
327,11617
327,11618
327,11619
327,11620
327,11621
326,11622
327,11623
327,11624
327,11625
327,11626
326,11627
327,11628
327,11629
326,11630
326,11631
326,11632
326,11633
326,11634
326,11635
326,11636
326,11637
326,11638
326,11639
326,11640
326,11641
326,11642
326,11643
325,11644
325,11645
326,11646
326,11648
326,11649
326,11650
325,11651
326,11652
326,11653
326,11654
325,11655
325,11656
325,11657
325,11658
325,11659
325,11660
325,11661
325,11661
325,11662
325,11663
325,11664
325,11665
325,11666
325,11667
325,11668
325,11669
325,11670
325,11671
326,11672
326,11673
326,11674
326,11675
326,11676
326,11677
325,11678
326,11679
325,11680
325,11681
325,11682
325,11683
325,11684
325,11685
325,11686
325,11687
325,11688
325,11689
325,11691
325,11692
325,11693
325,11694
325,11695
325,11696
325,11697
325,11698
324,11699
324,11700
324,11701
324,11702
324,11703
324,11704
324,11705
324,11706
324,11707
324,11708
324,11709
324,11710
324,11711
324,11712
324,11712
324,11713
323,11714
323,11715
323,11716
323,11717
323,11718
323,11719
323,11720
323,11721
323,11722
323,11723
323,11724
322,11725
322,11726
323,11727
323,11728
323,11729
323,11730
323,11731
323,11732
323,11734
323,11735
323,11736
323,11737
323,11738
322,11739
322,11740
322,11741
322,11742
322,11743
322,11744
322,11745
322,11746
322,11747
322,11748
322,11749
322,11750
322,11751
322,11752
322,11753
322,11754
322,11755
322,11756
322,11757
322,11758
322,11759
322,11760
322,11761
322,11762
322,11763
322,11764
322,11764
322,11765
322,11766
322,11767
322,11768
322,11769
322,11770
322,11771
322,11772
322,11773
322,11774
322,11776
322,11777
321,11778
321,11779
321,11780
321,11781
321,11782
321,11783
321,11784
321,11785
321,11786
321,11787
321,11788
321,11789
321,11790
321,11791
321,11792
321,11793
321,11794
321,11795
320,11796
320,11797
320,11798
320,11799
320,11800
320,11801
320,11802
320,11803
320,11804
320,11805
320,11806
320,11807
320,11808
320,11809
320,11810
320,11811
320,11812
320,11813
320,11814
320,11815
320,11815
319,11816
320,11817
319,11819
319,11820
319,11821
319,11822
319,11823
319,11824
319,11825
319,11826
319,11827
319,11828
319,11829
319,11830
319,11831
319,11832
319,11833
319,11834
319,11835
319,11836
319,11837
319,11838
319,11839
318,11840
318,11841
318,11842
318,11843
319,11844
318,11845
318,11846
318,11847
318,11848
319,11849
319,11850
319,11851
318,11852
318,11853
319,11854
319,11855
318,11856
318,11857
318,11858
318,11859
318,11860
318,11862
317,11863
317,11864
317,11865
317,11866
318,11867
317,11867
318,11868
318,11869
318,11870
318,11871
318,11872
318,11873
318,11874
318,11875
318,11876
317,11877
318,11878
317,11879
317,11880
317,11881
317,11882
317,11883
317,11884
317,11885
317,11886
317,11887
317,11888
317,11889
317,11890
317,11891
317,11892
317,11893
317,11894
317,11895
317,11896
317,11897
317,11898
317,11899
317,11900
317,11901
316,11902
317,11904
316,11905
317,11906
316,11907
316,11908
317,11909
316,11910
316,11911
316,11912
316,11913
317,11914
316,11915
316,11916
316,11917
316,11918
316,11918
316,11919
316,11920
316,11921
316,11922
316,11923
316,11924
316,11925
316,11926
316,11927
316,11928
316,11929
316,11930
316,11931
316,11932
316,11933
316,11934
316,11935
316,11936
316,11937
316,11938
316,11939
316,11940
315,11941
315,11942
315,11943
315,11944
315,11945
315,11947
315,11948
315,11949
315,11950
315,11951
315,11952
315,11953
315,11954
315,11955
315,11956
315,11957
314,11958
315,11959
314,11960
314,11961
314,11962
314,11963
314,11964
314,11965
314,11966
314,11967
314,11968
314,11969
314,11970
314,11970
314,11971
314,11972
314,11973
314,11974
314,11975
314,11976
314,11977
314,11978
314,11979
314,11980
314,11981
314,11982
313,11983
314,11984
314,11985
314,11986
314,11987
314,11988
314,11990
314,11991
314,11992
314,11993
314,11994
314,11995
314,11996
314,11997
314,11998
314,11999
314,12000
313,12001
314,12002
313,12003
313,12004
313,12005
313,12006
313,12007
313,12008
313,12009
313,12010
314,12011
313,12012
314,12013
313,12014
313,12015
313,12016
313,12017
313,12018
314,12019
313,12020
313,12021
313,12021
313,12022
313,12023
313,12024
313,12025
313,12026
313,12027
313,12028
313,12029
313,12030
313,12032
313,12033
313,12034
314,12035
313,12036
313,12037
313,12038
313,12039
313,12040
313,12041
313,12042
313,12043
313,12044
313,12045
313,12046
313,12047
313,12048
313,12049
313,12050
313,12051
313,12052
314,12053
313,12054
313,12055
313,12056
313,12057
313,12058
313,12059
313,12060
313,12061
313,12062
313,12063
313,12064
313,12065
313,12066
313,12067
314,12068
314,12069
314,12070
314,12071
314,12072
314,12072
314,12073
314,12075
314,12076
314,12077
314,12078
313,12079
314,12080
313,12081
313,12082
313,12083
313,12084
313,12085
313,12086
313,12087
313,12088
313,12089
313,12090
313,12091
314,12092
314,12093
314,12094
314,12095
313,12096
313,12097
314,12098
313,12099
313,12100
313,12101
313,12102
313,12103
313,12104
313,12105
313,12106
313,12107
313,12108
313,12109
313,12110
313,12111
313,12112
313,12113
313,12114
313,12115
313,12116
313,12118
313,12119
313,12120
313,12121
313,12122
313,12123
312,12124
312,12124
312,12125
312,12126
312,12127
312,12128
312,12129
313,12130
312,12131
312,12132
312,12133
312,12134
312,12135
313,12136
312,12137
312,12138
312,12139
312,12140
312,12141
312,12142
312,12143
312,12144
312,12145
312,12146
312,12147
312,12148
312,12149
312,12150
312,12151
312,12152
312,12153
312,12154
312,12155
312,12156
312,12157
312,12158
312,12160
312,12161
312,12162
312,12163
311,12164
312,12165
311,12166
312,12167
312,12168
312,12169
312,12170
312,12171
312,12172
312,12173
312,12174
312,12175
312,12176
312,12176
312,12177
312,12178
312,12179
312,12180
312,12181
312,12182
312,12183
311,12184
312,12185
312,12186
312,12187
312,12188
312,12189
312,12190
312,12191
312,12192
312,12193
312,12194
312,12195
312,12196
311,12197
311,12198
311,12199
311,12200
311,12201
311,12203
311,12204
311,12205
311,12206
311,12207
311,12208
311,12209
311,12210
311,12211
311,12212
311,12213
311,12214
311,12215
311,12216
311,12217
311,12218
311,12219
311,12220
310,12221
310,12222
311,12223
310,12224
310,12225
310,12226
310,12227
310,12227
310,12228
311,12229
310,12230
311,12231
310,12232
311,12233
311,12234
311,12235
311,12236
310,12237
310,12238
310,12239
310,12240
310,12241
310,12242
310,12243
310,12244
310,12246
310,12247
310,12248
310,12249
310,12250
310,12251
310,12252
310,12253
310,12254
310,12255
310,12256
310,12257
310,12258
310,12259
310,12260
309,12261
310,12262
310,12263
310,12264
310,12265
310,12266
310,12267
310,12268
310,12269
310,12270
310,12271
310,12272
310,12273
310,12274
310,12275
310,12276
310,12277
310,12278
310,12278
310,12279
310,12280
310,12281
310,12282
310,12283
310,12284
310,12285
310,12286
310,12288
311,12289
311,12290
311,12291
311,12292
311,12293
311,12294
311,12295
311,12296
312,12297
312,12298
312,12299
312,12300
312,12301
312,12302
312,12303
312,12304
312,12305
312,12306
312,12307
312,12308
312,12309
311,12310
312,12311
312,12312
312,12313
312,12314
312,12315
312,12316
312,12317
311,12318
311,12319
311,12320
311,12321
311,12322
311,12323
311,12324
311,12325
311,12326
311,12327
311,12328
311,12329
312,12329
312,12331
312,12332
311,12333
311,12334
311,12335
311,12336
311,12337
311,12338
311,12339
311,12340
311,12341
311,12342
311,12343
311,12344
311,12345
311,12346
311,12347
311,12348
311,12349
311,12350
312,12351
312,12352
312,12353
312,12354
312,12355
312,12356
312,12357
312,12358
311,12359
312,12360
312,12361
311,12362
311,12363
311,12364
311,12365
311,12366
311,12367
311,12368
312,12369
312,12370
312,12371
312,12372
312,12374
312,12375
312,12376
312,12377
312,12378
312,12379
312,12380
312,12381
312,12382
311,12382
311,12383
311,12384
311,12385
311,12386
311,12387
312,12388
312,12389
312,12390
312,12391
312,12392
312,12393
312,12394
312,12395
312,12396
312,12397
312,12398
312,12399
312,12400
312,12401
312,12402
313,12403
313,12404
313,12405
313,12406
313,12407
313,12408
313,12409
313,12410
313,12411
313,12412
313,12413
313,12414
313,12416
313,12417
313,12418
313,12419
312,12420
312,12421
312,12422
312,12423
312,12424
312,12425
312,12426
312,12427
312,12428
312,12429
312,12430
312,12431
312,12432
312,12433
312,12433
312,12434
313,12435
312,12436
313,12437
312,12438
313,12439
312,12440
312,12441
312,12442
312,12443
312,12444
312,12445
312,12446
312,12447
312,12448
313,12449
313,12450
313,12451
313,12452
313,12453
313,12454
313,12455
313,12456
313,12457
313,12459
313,12460
313,12461
312,12462
312,12463
313,12464
312,12465
313,12466
313,12467
313,12468
313,12469
313,12470
313,12471
313,12472
313,12473
313,12474
313,12475
313,12476
313,12477
313,12478
313,12479
313,12480
313,12481
313,12482
313,12483
313,12484
313,12484
313,12485
314,12486
314,12487
314,12488
314,12489
314,12490
314,12491
314,12492
314,12493
314,12494
314,12495
314,12496
314,12497
314,12498
314,12499
