9
314,570
314,571
315,572
315,573
315,574
315,575
316,576
316,577
316,578
316,579
316,580
316,581
316,582
316,583
316,584
316,585
316,586
316,587
316,588
316,589
317,590
317,591
317,592
317,593
318,594
318,594
318,595
319,596
318,598
319,599
319,600
319,601
318,602
318,603
318,604
319,605
318,606
318,607
319,608
319,609
319,610
320,611
320,612
320,613
320,614
320,615
320,616
321,617
321,618
320,619
320,620
320,621
320,622
320,623
320,624
320,625
320,626
320,627
320,628
320,629
320,630
320,631
320,632
321,633
321,634
321,635
321,636
321,637
321,638
321,640
321,641
321,642
320,643
320,644
320,645
320,646
320,647
319,648
319,648
319,649
320,650
320,651
320,652
320,653
320,654
320,655
320,656
320,657
319,658
319,659
319,660
319,661
318,662
318,663
318,664
318,665
318,666
318,667
318,668
318,669
318,670
318,671
318,672
318,673
318,674
318,675
318,676
318,677
318,678
318,679
318,680
317,681
317,683
317,684
317,685
316,686
316,687
316,688
316,689
316,690
316,691
316,692
316,693
317,694
316,695
317,696
317,697
316,698
316,699
316,700
316,701
316,701
315,702
315,703
315,704
315,705
314,706
315,707
315,708
315,709
315,710
315,711
316,712
315,713
316,714
316,715
316,716
316,717
316,718
316,719
315,720
315,721
315,722
315,723
315,724
315,726
315,727
314,728
315,729
315,730
315,731
315,732
315,733
315,734
315,735
315,736
315,737
315,738
315,739
315,740
314,741
314,742
314,743
314,744
313,745
313,746
313,747
313,748
313,749
313,750
313,751
313,752
313,753
313,753
313,754
313,755
313,756
313,757
313,758
313,759
313,760
313,761
312,762
312,763
312,764
312,765
311,766
311,768
311,769
311,770
311,771
312,772
311,773
312,774
312,775
312,776
312,777
312,778
311,779
311,780
311,781
311,782
311,783
310,784
310,785
310,786
310,787
310,788
310,789
310,790
310,791
310,792
310,793
310,794
310,795
310,796
310,797
310,798
310,799
310,800
310,801
310,802
309,803
309,804
309,804
309,805
309,806
309,807
309,808
309,809
309,811
309,812
309,813
309,814
310,815
310,816
310,817
310,818
310,819
309,820
309,821
309,822
309,823
309,824
308,825
308,826
308,827
308,828
308,829
309,830
308,831
309,832
309,833
309,834
309,835
309,836
309,837
309,838
309,839
309,840
308,841
308,842
308,843
308,844
308,845
308,846
308,847
308,848
308,849
309,850
309,851
309,852
309,854
309,855
309,856
309,857
309,858
309,858
309,859
309,860
309,861
309,862
309,863
309,864
308,865
308,866
308,867
308,868
308,869
309,870
309,871
309,872
309,873
309,874
309,875
309,876
309,877
309,878
309,879
309,880
309,881
309,882
309,883
309,884
309,885
309,886
309,887
309,888
309,889
309,890
309,891
309,892
309,893
310,894
310,896
310,897
310,898
310,899
310,900
310,901
309,902
309,903
309,904
309,905
309,906
309,907
309,908
309,909
309,910
309,910
309,911
309,912
310,913
309,914
309,915
310,916
309,917
310,918
310,919
310,920
309,921
309,922
309,923
309,924
309,925
309,926
309,927
309,928
309,929
309,930
310,931
310,932
310,933
310,934
310,935
310,936
310,937
311,939
310,940
310,941
310,942
310,943
310,944
310,945
309,946
310,947
310,948
310,949
310,950
310,951
310,952
310,953
310,954
311,955
311,956
311,957
311,958
311,959
310,960
310,961
310,962
310,962
310,963
310,964
310,965
310,966
310,967
310,968
311,969
311,970
311,971
311,972
311,973
312,974
312,975
312,976
312,977
312,978
312,979
312,980
311,982
312,983
311,984
311,985
311,986
311,987
311,988
311,989
312,990
312,991
312,992
312,993
312,994
312,995
312,996
312,997
312,998
312,999
312,1000
312,1001
312,1002
312,1003
312,1004
312,1005
312,1006
312,1007
312,1008
312,1009
312,1010
312,1011
313,1012
312,1013
313,1014
313,1014
313,1015
313,1016
313,1017
313,1018
313,1019
313,1020
313,1021
313,1022
312,1024
312,1025
312,1026
312,1027
312,1028
313,1029
312,1030
313,1031
313,1032
313,1033
313,1034
313,1035
313,1036
313,1037
313,1038
313,1039
313,1040
313,1041
313,1042
313,1043
313,1044
313,1045
313,1046
313,1047
313,1048
313,1049
313,1050
313,1051
313,1052
313,1053
313,1054
314,1055
314,1056
313,1057
314,1058
313,1059
313,1060
313,1061
313,1062
313,1063
313,1064
313,1065
313,1065
313,1067
313,1068
313,1069
313,1070
313,1071
313,1072
314,1073
314,1074
314,1075
314,1076
314,1077
314,1078
313,1079
313,1080
314,1081
313,1082
313,1083
313,1084
313,1085
313,1086
313,1087
313,1088
313,1089
313,1090
314,1091
314,1092
314,1093
314,1094
314,1095
314,1096
314,1097
314,1098
314,1099
314,1100
314,1101
314,1102
314,1103
314,1104
314,1105
314,1106
314,1107
314,1108
314,1110
314,1111
314,1112
315,1113
315,1114
315,1115
315,1116
315,1117
315,1117
315,1118
315,1119
315,1120
315,1121
315,1122
315,1123
315,1124
314,1125
314,1126
314,1127
314,1128
315,1129
315,1130
315,1131
315,1132
315,1133
316,1134
316,1135
316,1136
316,1137
316,1138
316,1139
315,1140
315,1141
315,1142
315,1143
315,1144
315,1145
315,1146
315,1147
315,1148
315,1149
315,1150
315,1152
315,1153
315,1154
316,1155
316,1156
316,1157
315,1158
315,1159
315,1160
315,1161
315,1162
315,1163
315,1164
315,1165
315,1166
315,1167
315,1168
315,1169
315,1169
315,1170
315,1171
315,1172
315,1173
315,1174
315,1175
315,1176
315,1177
315,1178
315,1179
315,1180
314,1181
314,1182
314,1183
314,1184
314,1185
314,1186
314,1187
314,1188
314,1189
314,1190
314,1191
314,1192
314,1193
314,1195
314,1196
314,1197
314,1198
314,1199
314,1200
314,1201
314,1202
314,1203
314,1204
314,1205
314,1206
314,1207
314,1208
314,1209
314,1210
314,1211
314,1212
314,1213
314,1214
314,1215
314,1216
314,1217
314,1218
314,1219
314,1220
314,1220
314,1221
314,1222
314,1223
314,1224
314,1225
313,1226
314,1227
314,1228
314,1229
314,1230
314,1231
314,1232
314,1233
314,1234
314,1235
314,1236
314,1238
314,1239
314,1240
314,1241
313,1242
313,1243
313,1244
313,1245
313,1246
313,1247
313,1248
314,1249
314,1250
314,1251
314,1252
314,1253
314,1254
314,1255
314,1256
315,1257
314,1258
314,1259
314,1260
314,1261
314,1262
314,1263
314,1264
314,1265
314,1266
314,1267
314,1268
314,1269
314,1270
314,1271
314,1272
314,1272
314,1273
314,1274
314,1275
314,1276
314,1277
314,1278
314,1280
314,1281
314,1282
314,1283
314,1284
314,1285
314,1286
314,1287
314,1288
314,1289
314,1290
314,1291
314,1292
314,1293
314,1294
314,1295
314,1296
314,1297
314,1298
314,1299
314,1300
314,1301
314,1302
314,1303
314,1304
314,1305
314,1306
314,1307
314,1308
314,1309
314,1310
314,1311
314,1312
314,1313
314,1314
314,1315
314,1316
314,1317
314,1318
315,1319
314,1320
314,1321
314,1323
314,1324
314,1324
314,1325
314,1326
314,1327
314,1328
315,1329
315,1330
314,1331
315,1332
315,1333
314,1334
314,1335
315,1336
315,1337
315,1338
315,1339
315,1340
315,1341
315,1342
315,1343
315,1344
314,1345
315,1346
315,1347
315,1348
315,1349
315,1350
315,1351
315,1352
315,1353
315,1354
315,1355
315,1356
315,1357
315,1358
315,1359
315,1360
315,1361
315,1362
315,1363
315,1364
315,1366
315,1367
315,1368
315,1369
315,1370
315,1371
315,1372
315,1373
315,1374
315,1375
315,1376
315,1376
315,1377
315,1378
315,1379
315,1380
315,1381
315,1382
315,1383
315,1384
315,1385
315,1386
314,1387
315,1388
314,1389
314,1390
314,1391
314,1392
314,1393
314,1394
314,1395
314,1396
314,1397
314,1398
314,1399
314,1400
314,1401
314,1402
314,1403
314,1404
314,1405
314,1406
314,1408
314,1409
314,1410
315,1411
314,1412
314,1413
315,1414
315,1415
314,1416
315,1417
315,1418
314,1419
314,1420
314,1421
314,1422
314,1423
314,1424
314,1425
314,1426
314,1427
314,1427
314,1428
314,1429
314,1430
314,1431
314,1432
314,1433
314,1434
314,1435
314,1436
314,1437
314,1438
314,1439
314,1440
314,1441
314,1442
314,1443
314,1444
314,1445
314,1446
314,1447
314,1448
314,1449
314,1451
314,1452
314,1453
314,1454
314,1455
314,1456
314,1457
314,1458
314,1459
314,1460
314,1461
314,1462
314,1463
314,1464
313,1465
314,1466
313,1467
313,1468
313,1469
313,1470
313,1471
313,1472
313,1473
314,1474
314,1475
314,1476
314,1477
314,1478
314,1478
314,1479
314,1480
314,1481
314,1482
314,1483
314,1484
314,1485
313,1486
313,1487
314,1488
314,1489
314,1490
314,1491
314,1492
314,1494
314,1495
314,1496
314,1497
314,1498
314,1499
314,1500
314,1501
314,1502
314,1503
314,1504
314,1505
314,1506
314,1507
314,1508
314,1509
314,1510
314,1511
314,1512
314,1513
314,1514
314,1515
315,1516
314,1517
314,1518
314,1519
314,1520
314,1521
314,1522
314,1523
314,1524
314,1525
314,1526
314,1527
314,1528
314,1529
314,1530
314,1530
314,1531
314,1532
314,1533
314,1534
314,1536
314,1537
314,1538
314,1539
314,1540
314,1541
314,1542
314,1543
313,1544
313,1545
313,1546
313,1547
313,1548
313,1549
313,1550
313,1551
313,1552
313,1553
314,1554
314,1555
314,1556
314,1557
314,1558
314,1559
314,1560
314,1561
314,1562
314,1563
314,1564
314,1565
314,1566
314,1567
314,1568
314,1569
314,1570
314,1571
314,1572
314,1573
314,1574
314,1575
314,1576
314,1577
314,1579
314,1580
314,1581
314,1582
313,1582
313,1583
313,1584
313,1585
313,1586
313,1587
313,1588
313,1589
313,1590
313,1591
313,1592
313,1593
314,1594
314,1595
314,1596
314,1597
314,1598
313,1599
313,1600
313,1601
313,1602
313,1603
313,1604
313,1605
313,1606
313,1607
313,1608
313,1609
313,1610
313,1611
313,1612
313,1613
313,1614
313,1615
313,1616
313,1617
313,1618
313,1619
313,1620
313,1622
313,1623
313,1624
313,1625
313,1626
313,1627
313,1628
313,1629
313,1630
313,1631
313,1632
314,1633
314,1634
314,1634
314,1635
314,1636
314,1637
313,1638
314,1639
313,1640
313,1641
313,1642
313,1643
313,1644
313,1645
313,1646
313,1647
313,1648
313,1649
313,1650
313,1651
313,1652
313,1653
313,1654
313,1655
313,1656
313,1657
313,1658
313,1659
313,1660
313,1661
313,1662
313,1664
313,1665
312,1666
312,1667
312,1668
312,1669
312,1670
312,1671
312,1672
313,1673
313,1674
313,1675
313,1676
313,1677
313,1678
313,1679
313,1680
313,1681
313,1682
312,1683
312,1684
312,1685
312,1685
312,1686
312,1687
312,1688
312,1689
312,1690
312,1691
312,1692
312,1693
313,1694
313,1695
313,1696
313,1697
313,1698
313,1699
313,1700
313,1701
313,1702
313,1703
312,1704
312,1705
312,1707
312,1708
312,1709
313,1710
312,1711
312,1712
312,1713
313,1714
313,1715
313,1716
313,1717
313,1718
313,1719
313,1720
312,1721
312,1722
312,1723
312,1724
312,1725
312,1726
312,1727
312,1728
312,1729
312,1730
312,1731
312,1732
312,1733
312,1734
313,1735
313,1736
312,1736
312,1737
312,1738
313,1739
313,1740
312,1741
313,1742
312,1743
312,1744
312,1745
312,1746
312,1747
313,1748
312,1750
313,1751
313,1752
313,1753
313,1754
313,1755
313,1756
313,1757
313,1758
313,1759
313,1760
313,1761
313,1762
313,1763
313,1764
313,1765
313,1766
313,1767
313,1768
313,1769
313,1770
313,1771
313,1772
313,1773
313,1774
313,1775
313,1776
313,1777
313,1778
313,1779
313,1780
313,1781
313,1782
313,1783
313,1784
313,1785
313,1786
313,1787
313,1788
313,1788
313,1789
313,1790
314,1792
314,1793
314,1794
314,1795
314,1796
314,1797
314,1798
314,1799
313,1800
313,1801
313,1802
313,1803
313,1804
313,1805
314,1806
314,1807
314,1808
314,1809
314,1810
314,1811
314,1812
314,1813
314,1814
314,1815
314,1816
314,1817
314,1818
314,1819
314,1820
314,1821
314,1822
314,1823
314,1824
314,1825
314,1826
314,1827
314,1828
314,1829
314,1830
314,1831
314,1832
314,1833
314,1835
314,1836
314,1837
314,1838
314,1839
314,1840
314,1840
314,1841
314,1842
314,1843
314,1844
313,1845
314,1846
314,1847
314,1848
314,1849
314,1850
314,1851
314,1852
314,1853
314,1854
314,1855
314,1856
314,1857
315,1858
314,1859
314,1860
314,1861
314,1862
314,1863
314,1864
314,1865
314,1866
314,1867
314,1868
314,1869
314,1870
314,1871
314,1872
315,1873
315,1874
315,1875
315,1876
315,1878
315,1879
315,1880
315,1881
315,1882
314,1883
314,1884
314,1885
314,1886
314,1887
314,1888
314,1889
314,1890
314,1891
314,1892
314,1892
314,1893
314,1894
314,1895
313,1896
313,1897
313,1898
313,1899
313,1900
313,1901
313,1902
314,1903
314,1904
314,1905
314,1906
314,1907
314,1908
314,1909
314,1910
314,1911
314,1912
314,1913
314,1914
314,1915
314,1916
314,1917
314,1918
314,1920
314,1921
314,1922
314,1923
313,1924
313,1925
313,1926
313,1927
313,1928
313,1929
313,1930
313,1931
313,1932
313,1933
313,1934
313,1935
313,1936
313,1937
313,1938
313,1939
313,1940
313,1941
313,1942
313,1943
312,1943
312,1944
312,1945
312,1946
312,1947
312,1948
312,1949
312,1950
313,1951
313,1952
313,1953
313,1954
313,1955
313,1956
313,1957
313,1958
313,1959
313,1960
313,1961
313,1963
313,1964
313,1965
313,1966
313,1967
313,1968
313,1969
313,1970
313,1971
313,1972
314,1973
314,1974
313,1975
313,1976
313,1977
313,1978
313,1979
313,1980
313,1981
313,1982
313,1983
312,1984
312,1985
312,1986
312,1987
312,1988
312,1989
312,1990
312,1991
312,1992
312,1993
312,1994
312,1995
312,1995
312,1996
312,1997
312,1998
313,1999
312,2000
312,2001
312,2002
312,2003
312,2004
312,2006
312,2007
312,2008
311,2009
311,2010
311,2011
311,2012
311,2013
312,2014
312,2015
311,2016
312,2017
312,2018
312,2019
312,2020
312,2021
312,2022
312,2023
312,2024
312,2025
312,2026
312,2027
312,2028
312,2029
312,2030
312,2031
312,2032
312,2033
312,2034
312,2035
313,2036
313,2037
313,2038
313,2039
313,2040
312,2041
313,2042
312,2043
312,2044
312,2045
312,2046
312,2046
312,2048
312,2049
312,2050
312,2051
312,2052
311,2053
312,2054
312,2055
311,2056
312,2057
311,2058
311,2059
311,2060
311,2061
311,2062
311,2063
311,2064
311,2065
311,2066
311,2067
311,2068
311,2069
311,2070
311,2071
311,2072
311,2073
311,2074
312,2075
312,2076
312,2077
311,2078
311,2079
311,2080
311,2081
311,2082
311,2083
311,2084
310,2085
310,2086
311,2087
311,2088
311,2089
311,2091
312,2092
312,2093
312,2094
312,2095
312,2096
312,2097
312,2098
312,2098
312,2099
311,2100
311,2101
311,2102
311,2103
311,2104
311,2105
310,2106
310,2107
310,2108
310,2109
310,2110
310,2111
310,2112
311,2113
311,2114
311,2115
311,2116
311,2117
311,2118
311,2119
311,2120
310,2121
310,2122
310,2123
310,2124
309,2125
309,2126
309,2127
309,2128
310,2129
310,2130
310,2131
310,2132
311,2134
311,2135
311,2136
311,2137
311,2138
311,2139
311,2140
311,2141
311,2142
311,2143
311,2144
311,2145
311,2146
311,2147
311,2148
311,2149
311,2150
311,2150
311,2151
311,2152
311,2153
311,2154
312,2155
312,2156
312,2157
311,2158
311,2159
311,2160
311,2161
311,2162
310,2163
310,2164
310,2165
310,2166
310,2167
309,2168
309,2169
310,2170
310,2171
310,2172
310,2173
310,2174
311,2176
311,2177
311,2178
311,2179
311,2180
311,2181
311,2182
311,2183
311,2184
311,2185
311,2186
311,2187
310,2188
310,2189
310,2190
310,2191
310,2192
310,2193
310,2194
310,2195
310,2196
311,2197
311,2198
311,2199
311,2200
310,2201
310,2201
310,2202
310,2203
310,2204
310,2205
310,2206
310,2207
310,2208
311,2209
311,2210
311,2211
311,2212
311,2213
311,2214
311,2215
311,2216
311,2217
310,2219
310,2220
311,2221
311,2222
310,2223
310,2224
310,2225
310,2226
310,2227
310,2228
311,2229
311,2230
311,2231
312,2232
312,2233
312,2234
312,2235
312,2236
313,2237
313,2238
312,2239
312,2240
312,2241
312,2242
312,2243
311,2244
311,2245
311,2246
311,2247
311,2248
311,2249
311,2250
311,2251
311,2252
311,2252
311,2253
311,2254
311,2255
311,2256
311,2257
311,2258
311,2259
311,2260
310,2262
310,2263
311,2264
310,2265
310,2266
310,2267
310,2268
310,2269
310,2270
310,2271
310,2272
310,2273
310,2274
310,2275
311,2276
311,2277
311,2278
311,2279
311,2280
311,2281
311,2282
311,2283
311,2284
311,2285
311,2286
310,2287
310,2288
310,2289
310,2290
311,2291
311,2292
311,2293
311,2294
311,2295
311,2296
311,2297
311,2298
311,2299
312,2300
312,2301
312,2302
312,2304
313,2305
313,2305
313,2306
313,2307
313,2308
312,2309
312,2310
312,2311
312,2312
312,2313
312,2314
312,2315
311,2316
311,2317
311,2318
311,2319
311,2320
311,2321
310,2322
311,2323
311,2324
310,2325
310,2326
310,2327
310,2328
310,2329
311,2330
310,2331
311,2332
311,2333
311,2334
311,2335
311,2336
311,2337
311,2338
311,2339
310,2340
310,2341
310,2342
310,2343
310,2344
310,2345
310,2347
310,2348
310,2349
310,2350
310,2351
310,2352
311,2353
311,2354
311,2355
311,2356
311,2356
312,2357
312,2358
312,2359
312,2360
312,2361
312,2362
311,2363
311,2364
310,2365
310,2366
310,2367
311,2368
311,2369
311,2370
311,2371
311,2372
311,2373
311,2374
311,2375
311,2376
311,2377
311,2378
310,2379
310,2380
310,2381
310,2382
310,2383
310,2384
310,2385
310,2386
309,2387
310,2388
310,2390
309,2391
310,2392
310,2393
310,2394
310,2395
310,2396
310,2397
310,2398
310,2399
310,2400
310,2401
310,2402
310,2403
310,2404
310,2405
309,2406
309,2407
309,2407
309,2408
309,2409
309,2410
309,2411
309,2412
309,2413
309,2414
310,2415
310,2416
310,2417
310,2418
310,2419
310,2420
310,2421
310,2422
310,2423
310,2424
310,2425
310,2426
310,2427
310,2428
310,2429
310,2430
310,2432
310,2433
310,2434
310,2435
311,2436
311,2437
311,2438
312,2439
312,2440
313,2441
313,2442
313,2443
313,2444
313,2445
313,2446
313,2447
313,2448
313,2449
312,2450
312,2451
312,2452
312,2453
312,2454
312,2455
311,2456
311,2457
312,2458
312,2459
311,2459
311,2460
311,2461
312,2462
311,2463
311,2464
311,2465
310,2466
310,2467
310,2468
310,2469
310,2470
310,2471
310,2472
310,2473
309,2475
310,2476
309,2477
309,2478
309,2479
309,2480
309,2481
309,2482
309,2483
309,2484
309,2485
309,2486
309,2487
309,2488
309,2489
309,2490
309,2491
309,2492
309,2493
309,2494
309,2495
309,2496
309,2497
309,2498
309,2499
309,2500
309,2501
309,2502
309,2503
310,2504
310,2505
310,2506
310,2507
310,2508
310,2509
310,2510
310,2510
310,2511
310,2512
310,2513
310,2514
311,2515
311,2516
311,2518
312,2519
312,2520
312,2521
311,2522
311,2523
311,2524
311,2525
310,2526
310,2527
310,2528
310,2529
311,2530
311,2531
311,2532
312,2533
312,2534
312,2535
312,2536
312,2537
312,2538
312,2539
312,2540
312,2541
312,2542
312,2543
311,2544
311,2545
311,2546
311,2547
311,2548
311,2549
311,2550
311,2551
311,2552
311,2553
311,2554
311,2555
311,2556
312,2557
312,2558
312,2560
312,2561
312,2562
312,2563
312,2563
312,2564
312,2565
312,2566
312,2567
312,2568
312,2569
312,2570
312,2571
312,2572
312,2573
312,2574
312,2575
312,2576
312,2577
312,2578
311,2579
312,2580
312,2581
312,2582
312,2583
313,2584
313,2585
313,2586
313,2587
313,2588
313,2589
313,2590
313,2591
313,2592
313,2593
313,2594
313,2595
313,2596
313,2597
313,2598
313,2599
313,2600
313,2601
313,2603
313,2604
313,2605
312,2606
312,2607
313,2608
312,2609
313,2610
313,2611
313,2612
313,2613
314,2614
314,2614
313,2615
314,2616
314,2617
314,2618
314,2619
314,2620
313,2621
313,2622
313,2623
314,2624
314,2625
314,2626
313,2627
313,2628
313,2629
312,2630
312,2631
312,2632
312,2633
312,2634
312,2635
312,2636
313,2637
313,2638
313,2639
313,2640
313,2641
313,2642
313,2643
312,2644
312,2646
312,2647
312,2648
312,2649
312,2650
312,2651
312,2652
312,2653
312,2654
312,2655
313,2656
312,2657
313,2658
313,2659
313,2660
313,2661
313,2662
313,2663
313,2664
313,2665
313,2665
313,2666
313,2667
314,2668
314,2669
314,2670
315,2671
315,2672
315,2673
315,2674
315,2675
315,2676
315,2677
315,2678
314,2679
314,2680
313,2681
313,2682
313,2683
313,2684
312,2685
312,2686
312,2688
312,2689
312,2690
312,2691
312,2692
313,2693
313,2694
313,2695
313,2696
313,2697
313,2698
313,2699
313,2700
313,2701
313,2702
312,2703
312,2704
312,2705
312,2706
312,2707
312,2708
312,2709
312,2710
312,2711
312,2712
312,2713
312,2714
313,2715
313,2716
313,2717
313,2717
313,2718
312,2719
312,2720
311,2721
311,2722
311,2723
311,2724
311,2725
311,2726
312,2727
311,2728
312,2729
312,2731
312,2732
312,2733
312,2734
312,2735
312,2736
312,2737
312,2738
312,2739
313,2740
313,2741
313,2742
313,2743
313,2744
313,2745
313,2746
313,2747
313,2748
313,2749
313,2750
313,2751
313,2752
312,2753
312,2754
312,2755
312,2756
312,2757
312,2758
312,2759
312,2760
312,2761
312,2762
313,2763
313,2764
313,2765
313,2766
313,2767
313,2768
313,2768
313,2769
313,2770
313,2771
313,2772
313,2774
313,2775
313,2776
313,2777
313,2778
312,2779
312,2780
312,2781
311,2782
311,2783
311,2784
311,2785
311,2786
311,2787
311,2788
311,2789
311,2790
310,2791
311,2792
310,2793
311,2794
311,2795
311,2796
311,2797
311,2798
311,2799
311,2800
311,2801
311,2802
311,2803
311,2804
311,2805
311,2806
311,2807
311,2808
311,2809
311,2810
311,2811
312,2812
311,2813
311,2814
311,2816
311,2817
312,2818
312,2819
312,2820
312,2821
312,2821
312,2822
312,2823
313,2824
313,2825
313,2826
314,2827
314,2828
314,2829
315,2830
315,2831
316,2832
315,2833
315,2834
316,2835
315,2836
316,2837
316,2838
316,2839
316,2840
316,2841
315,2842
315,2843
314,2844
314,2845
314,2846
313,2847
313,2848
312,2849
312,2850
312,2851
312,2852
312,2853
312,2854
312,2855
312,2856
312,2857
312,2859
312,2860
312,2861
312,2862
311,2863
311,2864
311,2865
311,2866
311,2867
311,2868
311,2869
311,2870
311,2871
311,2872
311,2872
311,2873
311,2874
312,2875
311,2876
312,2877
312,2878
312,2879
312,2880
312,2881
312,2882
312,2883
312,2884
312,2885
312,2886
312,2887
311,2888
311,2889
311,2890
312,2891
311,2892
312,2893
312,2894
312,2895
312,2896
312,2897
313,2898
313,2899
313,2900
313,2902
313,2903
313,2904
313,2905
313,2906
313,2907
313,2908
313,2909
313,2910
313,2911
313,2912
313,2913
313,2914
313,2915
314,2916
314,2917
315,2918
315,2919
315,2920
315,2921
315,2922
315,2923
315,2923
315,2924
315,2925
314,2926
314,2927
313,2928
313,2929
313,2930
313,2931
313,2932
312,2933
313,2934
312,2935
312,2936
312,2937
312,2938
312,2939
312,2940
312,2941
311,2942
311,2944
311,2945
311,2946
311,2947
311,2948
311,2949
311,2950
311,2951
312,2952
312,2953
312,2954
312,2955
312,2956
312,2957
312,2958
312,2959
312,2960
312,2961
312,2962
312,2963
312,2964
312,2965
312,2966
312,2967
312,2968
312,2969
312,2970
312,2971
312,2972
312,2973
312,2974
311,2975
312,2975
312,2976
312,2977
313,2978
313,2979
313,2980
314,2981
314,2982
313,2983
313,2984
313,2985
312,2987
312,2988
312,2989
311,2990
312,2991
311,2992
312,2993
311,2994
311,2995
311,2996
311,2997
311,2998
311,2999
311,3000
311,3001
312,3002
311,3003
311,3004
311,3005
311,3006
311,3007
311,3008
311,3009
311,3010
311,3011
311,3012
311,3013
311,3014
311,3015
312,3016
311,3017
312,3018
311,3019
312,3020
312,3021
312,3022
312,3023
312,3024
312,3025
313,3026
313,3026
313,3027
313,3028
313,3030
312,3031
312,3032
313,3033
313,3034
313,3035
313,3036
313,3037
313,3038
313,3039
313,3040
313,3041
313,3042
313,3043
312,3044
312,3045
312,3046
312,3047
312,3048
312,3049
312,3050
312,3051
312,3052
313,3053
313,3054
312,3055
312,3056
312,3057
312,3058
313,3059
313,3060
313,3061
312,3062
312,3063
312,3064
312,3065
312,3066
312,3067
313,3068
312,3069
312,3070
312,3072
313,3073
313,3074
313,3075
313,3076
313,3077
313,3078
314,3078
314,3079
313,3080
314,3081
313,3082
313,3083
313,3084
313,3085
313,3086
313,3087
313,3088
313,3089
314,3090
314,3091
314,3092
314,3093
314,3094
315,3095
315,3096
314,3097
314,3098
314,3099
314,3100
314,3101
313,3102
313,3103
313,3104
313,3105
313,3106
313,3107
313,3108
313,3109
313,3110
313,3111
314,3112
314,3113
314,3115
314,3116
314,3117
314,3118
314,3119
314,3120
313,3121
313,3122
313,3123
313,3124
312,3125
312,3126
312,3127
312,3128
312,3129
312,3130
312,3130
312,3131
312,3132
312,3133
312,3134
312,3135
312,3136
312,3137
311,3138
311,3139
311,3140
310,3141
310,3142
311,3143
311,3144
311,3145
311,3146
312,3147
312,3148
312,3149
311,3150
311,3151
311,3152
311,3153
311,3154
311,3155
311,3156
312,3158
312,3159
312,3160
312,3161
312,3162
313,3163
313,3164
314,3165
314,3166
314,3167
314,3168
314,3169
314,3170
314,3171
313,3172
313,3173
313,3174
313,3175
312,3176
312,3177
312,3178
312,3179
312,3180
312,3181
312,3181
312,3182
312,3183
312,3184
312,3185
312,3186
312,3187
312,3188
312,3189
312,3190
312,3191
312,3192
312,3193
313,3194
313,3195
313,3196
313,3197
313,3198
313,3200
313,3201
313,3202
313,3203
312,3204
312,3205
312,3206
311,3207
311,3208
311,3209
311,3210
311,3211
311,3212
311,3213
311,3214
311,3215
311,3216
312,3217
312,3218
311,3219
311,3220
311,3221
311,3222
311,3223
311,3224
311,3225
311,3226
311,3227
310,3228
310,3229
310,3230
310,3231
310,3232
310,3232
310,3233
310,3234
310,3235
310,3236
310,3237
310,3238
310,3239
310,3240
311,3241
311,3243
311,3244
311,3245
310,3246
310,3247
311,3248
311,3249
311,3250
311,3251
310,3252
310,3253
309,3254
309,3255
309,3256
309,3257
309,3258
309,3259
309,3260
309,3261
309,3262
309,3263
309,3264
309,3265
309,3266
309,3267
309,3268
309,3269
310,3270
310,3271
310,3272
310,3273
310,3274
310,3275
310,3276
310,3277
309,3278
309,3279
309,3280
308,3281
308,3282
308,3283
308,3284
307,3284
307,3286
307,3287
307,3288
307,3289
307,3290
307,3291
307,3292
307,3293
307,3294
307,3295
307,3296
307,3297
307,3298
307,3299
306,3300
306,3301
306,3302
306,3303
306,3304
306,3305
306,3306
306,3307
307,3308
307,3309
307,3310
308,3311
308,3312
308,3313
308,3314
308,3315
308,3316
308,3317
308,3318
308,3319
308,3320
308,3321
309,3322
309,3323
310,3324
310,3325
310,3326
310,3328
310,3329
310,3330
310,3331
310,3332
310,3333
310,3334
310,3335
310,3336
310,3336
310,3337
309,3338
309,3339
308,3340
308,3341
307,3342
307,3343
307,3344
307,3345
308,3346
308,3347
308,3348
308,3349
308,3350
308,3351
308,3352
309,3353
309,3354
309,3355
309,3356
309,3357
309,3358
309,3359
309,3360
309,3361
309,3362
309,3363
309,3364
309,3365
309,3366
309,3367
309,3368
309,3369
309,3371
309,3372
309,3373
309,3374
309,3375
309,3376
309,3377
309,3378
309,3379
309,3380
309,3381
309,3382
309,3383
309,3384
309,3385
309,3386
309,3387
309,3388
309,3388
309,3389
309,3390
309,3391
309,3392
309,3393
309,3394
309,3395
310,3396
310,3397
310,3398
310,3399
310,3400
310,3401
311,3402
311,3403
311,3404
311,3405
312,3406
312,3407
312,3408
312,3409
312,3410
312,3411
312,3412
313,3414
313,3415
313,3416
312,3417
313,3418
313,3419
313,3420
313,3421
313,3422
312,3423
312,3424
313,3425
313,3426
313,3427
313,3428
313,3429
313,3430
312,3431
312,3432
312,3433
312,3434
312,3435
312,3436
311,3437
311,3438
311,3439
311,3439
310,3440
311,3441
311,3442
311,3443
311,3444
311,3445
311,3446
311,3447
311,3448
311,3449
311,3450
311,3451
311,3452
311,3453
311,3454
311,3456
311,3457
312,3458
312,3459
312,3460
312,3461
312,3462
312,3463
312,3464
312,3465
312,3466
312,3467
312,3468
312,3469
312,3470
312,3471
313,3472
312,3473
313,3474
313,3475
313,3476
313,3477
313,3478
313,3479
313,3480
313,3481
313,3482
313,3483
313,3484
313,3485
313,3486
313,3487
313,3488
313,3489
313,3490
313,3491
313,3491
313,3492
314,3493
314,3494
314,3495
314,3496
315,3497
315,3499
315,3500
315,3501
316,3502
315,3503
315,3504
315,3505
315,3506
315,3507
315,3508
314,3509
314,3510
313,3511
313,3512
313,3513
313,3514
313,3515
313,3516
313,3517
314,3518
314,3519
314,3520
314,3521
313,3522
313,3523
313,3524
314,3525
314,3526
314,3527
314,3528
314,3529
314,3530
315,3531
315,3532
315,3533
315,3534
315,3535
315,3536
315,3537
315,3538
314,3539
315,3540
314,3542
314,3543
314,3543
314,3544
314,3545
313,3546
313,3547
313,3548
313,3549
313,3550
314,3551
314,3552
314,3553
314,3554
314,3555
314,3556
314,3557
314,3558
314,3559
314,3560
314,3561
314,3562
314,3563
314,3564
314,3565
314,3566
314,3567
314,3568
314,3569
314,3570
314,3571
314,3572
313,3573
314,3574
314,3575
314,3576
314,3577
314,3578
314,3579
314,3580
313,3581
313,3582
313,3584
313,3585
313,3586
313,3587
313,3588
312,3589
313,3590
312,3591
312,3592
312,3593
312,3594
312,3595
312,3595
312,3596
312,3597
312,3598
313,3599
313,3600
313,3601
314,3602
314,3603
313,3604
313,3605
313,3606
313,3607
314,3608
314,3609
314,3610
314,3611
314,3612
314,3613
314,3614
314,3615
314,3616
314,3617
314,3618
314,3619
314,3620
314,3621
314,3622
314,3623
314,3624
314,3625
315,3627
315,3628
315,3629
316,3630
316,3631
316,3632
317,3633
317,3634
316,3635
317,3636
317,3637
316,3638
316,3639
316,3640
316,3641
315,3642
315,3643
315,3644
315,3645
314,3646
315,3646
314,3647
314,3648
314,3649
314,3650
314,3651
314,3652
314,3653
314,3654
314,3655
314,3656
315,3657
315,3658
315,3659
315,3660
315,3661
315,3662
315,3663
314,3664
314,3665
314,3666
314,3667
314,3668
313,3670
313,3671
313,3672
313,3673
313,3674
313,3675
313,3676
313,3677
314,3678
314,3679
314,3680
314,3681
314,3682
314,3683
314,3684
314,3685
314,3686
314,3687
314,3688
314,3689
314,3690
314,3691
314,3692
314,3693
314,3694
314,3695
314,3696
314,3697
314,3698
314,3698
314,3699
314,3700
314,3701
314,3702
315,3703
315,3704
315,3705
315,3706
315,3707
315,3708
316,3709
316,3710
316,3712
316,3713
316,3714
316,3715
316,3716
316,3717
316,3718
316,3719
316,3720
316,3721
316,3722
316,3723
316,3724
316,3725
316,3726
316,3727
316,3728
316,3729
315,3730
315,3731
316,3732
316,3733
316,3734
316,3735
316,3736
315,3737
314,3738
314,3739
313,3740
313,3741
313,3742
314,3743
314,3744
314,3745
314,3746
314,3747
315,3748
315,3749
315,3749
315,3750
315,3751
315,3752
315,3753
315,3755
315,3756
315,3757
315,3758
315,3759
315,3760
316,3761
316,3762
315,3763
315,3764
315,3765
315,3766
315,3767
315,3768
315,3769
315,3770
315,3771
315,3772
315,3773
315,3774
315,3775
315,3776
315,3777
316,3778
316,3779
316,3780
316,3781
316,3782
315,3783
315,3784
315,3785
315,3786
315,3787
315,3788
314,3789
314,3790
314,3791
314,3792
314,3793
314,3794
314,3795
314,3796
314,3798
314,3799
314,3800
314,3801
315,3802
315,3802
315,3803
315,3804
316,3805
316,3806
317,3807
316,3808
316,3809
316,3810
316,3811
315,3812
315,3813
315,3814
315,3815
315,3816
315,3817
315,3818
315,3819
316,3820
315,3821
315,3822
314,3823
314,3824
314,3825
314,3826
314,3827
314,3828
313,3829
314,3830
313,3831
313,3832
313,3833
313,3834
314,3835
313,3836
314,3837
314,3838
314,3840
314,3841
315,3842
315,3843
315,3844
314,3845
314,3846
314,3847
314,3848
314,3849
314,3850
314,3851
314,3852
314,3853
314,3853
314,3854
314,3855
314,3856
314,3857
314,3858
315,3859
315,3860
315,3861
314,3862
315,3863
314,3864
314,3865
314,3866
314,3867
314,3868
314,3869
314,3870
314,3871
314,3872
314,3873
314,3874
314,3875
315,3876
315,3877
315,3878
315,3879
315,3880
315,3881
315,3883
315,3884
314,3885
314,3886
314,3887
314,3888
313,3889
313,3890
313,3891
313,3892
313,3893
313,3894
313,3895
313,3896
312,3897
312,3898
312,3899
312,3900
312,3901
312,3902
313,3903
313,3904
314,3905
314,3905
314,3906
314,3907
314,3908
314,3909
314,3910
313,3911
313,3912
313,3913
313,3914
313,3915
313,3916
313,3917
313,3918
313,3919
312,3920
312,3921
313,3922
313,3923
313,3924
313,3926
313,3927
314,3928
314,3929
315,3930
315,3931
316,3932
316,3933
316,3934
316,3935
316,3936
316,3937
316,3938
315,3939
315,3940
315,3941
315,3942
315,3943
314,3944
314,3945
314,3946
314,3947
314,3948
314,3949
315,3950
314,3951
314,3952
314,3953
314,3954
313,3955
313,3956
314,3956
313,3957
314,3958
314,3959
313,3960
314,3961
313,3962
313,3963
313,3964
312,3965
312,3966
311,3968
311,3969
311,3970
311,3971
312,3972
312,3973
312,3974
312,3975
313,3976
313,3977
313,3978
313,3979
313,3980
313,3981
313,3982
313,3983
314,3984
314,3985
313,3986
314,3987
314,3988
313,3989
313,3990
313,3991
313,3992
313,3993
313,3994
313,3995
313,3996
313,3997
313,3998
313,3999
313,4000
313,4001
313,4002
313,4003
313,4004
313,4005
313,4006
313,4007
312,4007
312,4008
312,4009
312,4011
312,4012
312,4013
312,4014
313,4015
313,4016
313,4017
313,4018
313,4019
314,4020
314,4021
314,4022
314,4023
314,4024
314,4025
314,4026
314,4027
314,4028
314,4029
313,4030
314,4031
314,4032
314,4033
314,4034
315,4035
315,4036
315,4037
315,4038
315,4039
315,4040
315,4041
315,4042
314,4043
314,4044
314,4045
313,4046
313,4047
313,4048
313,4049
313,4050
313,4051
313,4052
314,4054
314,4055
314,4056
314,4057
314,4058
314,4059
314,4060
314,4060
314,4061
315,4062
315,4063
316,4064
316,4065
316,4066
315,4067
315,4068
315,4069
315,4070
316,4071
316,4072
315,4073
315,4074
315,4075
315,4076
315,4077
315,4078
315,4079
314,4080
314,4081
314,4082
314,4083
314,4084
314,4085
314,4086
314,4087
314,4088
314,4089
314,4090
314,4091
315,4092
315,4093
315,4094
316,4096
316,4097
316,4098
316,4099
317,4100
317,4101
316,4102
316,4103
316,4104
316,4105
316,4106
315,4107
315,4108
315,4109
315,4110
315,4111
315,4111
314,4112
314,4113
314,4114
315,4115
315,4116
315,4117
315,4118
315,4119
315,4120
314,4121
315,4122
314,4123
314,4124
314,4125
314,4126
313,4127
313,4128
313,4129
313,4130
313,4131
313,4132
313,4133
314,4134
314,4135
314,4136
314,4137
315,4139
315,4140
315,4141
315,4142
315,4143
314,4144
314,4145
314,4146
315,4147
315,4148
314,4149
314,4150
314,4151
314,4152
314,4153
314,4154
315,4155
315,4156
315,4157
315,4158
315,4159
315,4160
315,4161
314,4162
314,4163
314,4163
314,4164
314,4165
314,4166
314,4167
315,4168
315,4169
316,4170
316,4171
316,4172
316,4173
316,4174
316,4175
316,4176
316,4177
316,4178
315,4179
315,4180
315,4182
314,4183
314,4184
314,4185
313,4186
313,4187
313,4188
313,4189
313,4190
313,4191
312,4192
312,4193
312,4194
312,4195
312,4196
312,4197
312,4198
313,4199
313,4200
313,4201
313,4202
313,4203
312,4204
312,4205
311,4206
311,4207
311,4208
311,4209
311,4210
312,4211
312,4212
312,4213
312,4214
312,4214
312,4215
313,4216
313,4217
313,4218
313,4219
312,4220
313,4221
313,4222
312,4224
312,4225
312,4226
312,4227
312,4228
312,4229
312,4230
312,4231
312,4232
312,4233
312,4234
312,4235
312,4236
312,4237
312,4238
312,4239
312,4240
312,4241
312,4242
313,4243
313,4244
313,4245
314,4246
314,4247
314,4248
314,4249
314,4250
314,4251
313,4252
313,4253
313,4254
312,4255
312,4256
313,4257
312,4258
312,4259
312,4260
312,4261
312,4262
312,4263
312,4264
312,4265
312,4267
313,4267
313,4268
313,4269
313,4270
313,4271
313,4272
313,4273
313,4274
314,4275
313,4276
314,4277
313,4278
313,4279
313,4280
313,4281
313,4282
313,4283
313,4284
314,4285
314,4286
314,4287
314,4288
314,4289
314,4290
314,4291
314,4292
314,4293
314,4294
314,4295
314,4296
314,4297
314,4298
314,4299
314,4300
313,4301
313,4302
313,4303
312,4304
312,4305
312,4306
313,4307
312,4308
312,4310
312,4311
313,4312
313,4313
313,4314
313,4315
313,4316
314,4317
314,4318
314,4318
314,4319
315,4320
315,4321
315,4322
315,4323
315,4324
315,4325
314,4326
314,4327
314,4328
314,4329
313,4330
313,4331
313,4332
313,4333
313,4334
313,4335
313,4336
313,4337
313,4338
313,4339
313,4340
313,4341
313,4342
313,4343
313,4344
313,4345
312,4346
312,4347
312,4348
313,4349
313,4350
314,4352
314,4353
314,4354
314,4355
314,4356
314,4357
314,4358
315,4359
314,4360
314,4361
314,4362
314,4363
314,4364
313,4365
313,4366
313,4367
313,4368
313,4369
313,4369
312,4370
312,4371
312,4372
312,4373
312,4374
312,4375
312,4376
312,4377
312,4378
312,4379
312,4380
312,4381
313,4382
313,4383
312,4384
312,4385
312,4386
312,4387
312,4388
312,4389
312,4390
312,4391
312,4392
313,4393
312,4395
313,4396
313,4397
313,4398
313,4399
313,4400
313,4401
313,4402
313,4403
314,4404
314,4405
314,4406
314,4407
313,4408
313,4409
313,4410
313,4411
312,4412
312,4413
312,4414
312,4415
312,4416
312,4417
312,4418
312,4419
312,4420
312,4421
312,4421
312,4422
312,4423
312,4424
312,4425
311,4426
311,4427
311,4428
311,4429
311,4430
311,4431
311,4432
311,4433
311,4434
311,4435
311,4436
311,4438
311,4439
311,4440
311,4441
311,4442
311,4443
311,4444
310,4445
310,4446
310,4447
310,4448
310,4449
311,4450
311,4451
311,4452
312,4453
312,4454
312,4455
312,4456
312,4457
312,4458
312,4459
312,4460
312,4461
312,4462
313,4463
312,4464
312,4465
312,4466
312,4467
312,4468
312,4469
312,4470
312,4471
311,4472
311,4472
311,4473
310,4474
310,4475
310,4476
310,4477
310,4478
310,4480
310,4481
310,4482
311,4483
311,4484
311,4485
311,4486
311,4487
311,4488
311,4489
311,4490
311,4491
312,4492
312,4493
312,4494
312,4495
312,4496
312,4497
311,4498
311,4499
311,4500
311,4501
311,4502
311,4503
311,4504
311,4505
311,4506
311,4507
310,4508
310,4509
311,4510
311,4511
311,4512
311,4513
311,4514
311,4515
312,4516
312,4517
312,4518
312,4519
312,4520
312,4521
312,4523
312,4524
312,4525
312,4525
311,4526
311,4527
311,4528
311,4529
311,4530
311,4531
311,4532
311,4533
311,4534
312,4535
312,4536
312,4537
312,4538
312,4539
312,4540
312,4541
312,4542
312,4543
312,4544
312,4545
312,4546
311,4547
311,4548
311,4549
311,4550
310,4551
310,4552
310,4553
310,4554
311,4555
311,4556
311,4557
311,4558
312,4559
312,4560
312,4561
313,4562
313,4563
313,4564
313,4566
313,4567
313,4568
313,4569
313,4570
313,4571
313,4572
313,4573
313,4574
312,4575
312,4576
312,4576
313,4577
312,4578
312,4579
312,4580
312,4581
312,4582
312,4583
312,4584
312,4585
312,4586
312,4587
312,4588
312,4589
312,4590
312,4591
312,4592
312,4593
311,4594
311,4595
311,4596
311,4597
311,4598
311,4599
311,4600
312,4601
311,4602
312,4603
312,4604
312,4605
312,4606
312,4608
312,4609
312,4610
312,4611
312,4612
312,4613
313,4614
313,4615
313,4616
313,4617
313,4618
313,4619
313,4620
313,4621
313,4622
313,4623
313,4624
313,4625
313,4626
313,4627
313,4627
314,4628
314,4629
314,4630
314,4631
314,4632
313,4633
313,4634
313,4635
313,4636
312,4637
312,4638
312,4639
313,4640
312,4641
312,4642
312,4643
312,4644
312,4645
312,4646
312,4647
313,4648
313,4649
313,4651
313,4652
313,4653
313,4654
313,4655
312,4656
312,4657
312,4658
312,4659
312,4660
312,4661
312,4662
312,4663
312,4664
312,4665
312,4666
312,4667
312,4668
312,4669
312,4670
312,4671
312,4672
312,4673
313,4674
313,4675
313,4676
313,4677
313,4678
312,4679
312,4679
311,4680
311,4681
311,4682
311,4683
312,4684
312,4685
312,4686
312,4687
312,4688
312,4689
312,4690
312,4691
313,4692
313,4694
313,4695
313,4696
313,4697
313,4698
313,4699
313,4700
313,4701
313,4702
313,4703
313,4704
313,4705
313,4706
313,4707
313,4708
313,4709
313,4710
313,4711
313,4712
313,4713
313,4714
313,4715
313,4716
313,4717
314,4718
313,4719
313,4720
313,4721
313,4722
313,4723
313,4724
313,4725
313,4726
314,4727
314,4728
315,4729
316,4730
316,4730
316,4731
316,4732
316,4733
316,4734
315,4736
315,4737
315,4738
315,4739
314,4740
314,4741
314,4742
314,4743
313,4744
313,4745
313,4746
313,4747
313,4748
314,4749
314,4750
314,4751
314,4752
314,4753
314,4754
314,4755
314,4756
314,4757
314,4758
313,4759
314,4760
313,4761
313,4762
313,4763
313,4764
313,4765
313,4766
313,4767
313,4768
313,4769
314,4770
314,4771
314,4772
314,4773
314,4774
314,4775
315,4776
315,4777
315,4779
315,4780
315,4781
314,4782
314,4782
314,4783
314,4784
314,4785
314,4786
314,4787
314,4788
314,4789
315,4790
315,4791
316,4792
316,4793
316,4794
316,4795
316,4796
316,4797
315,4798
316,4799
315,4800
315,4801
315,4802
314,4803
314,4804
314,4805
314,4806
314,4807
314,4808
314,4809
314,4810
314,4811
315,4812
315,4813
315,4814
315,4815
315,4816
315,4817
315,4818
316,4819
315,4820
315,4822
315,4823
315,4824
315,4825
315,4826
315,4827
314,4828
314,4829
314,4830
314,4831
314,4832
314,4833
314,4834
314,4834
314,4835
314,4836
314,4837
315,4838
315,4839
316,4840
316,4841
316,4842
316,4843
316,4844
315,4845
315,4846
315,4847
316,4848
316,4849
316,4850
316,4851
316,4852
316,4853
316,4854
316,4855
316,4856
316,4857
316,4858
317,4859
317,4860
318,4861
318,4862
318,4864
318,4865
318,4866
317,4867
317,4868
317,4869
317,4870
316,4871
316,4872
316,4873
316,4874
316,4875
316,4876
316,4877
316,4878
316,4879
316,4880
316,4881
316,4882
316,4883
316,4884
316,4885
316,4885
316,4886
316,4887
316,4888
315,4889
316,4890
316,4891
315,4892
316,4893
316,4894
317,4895
317,4896
317,4897
317,4898
317,4899
317,4900
317,4901
317,4902
316,4903
317,4904
316,4905
316,4907
316,4908
315,4909
315,4910
315,4911
315,4912
315,4913
315,4914
315,4915
315,4916
315,4917
315,4918
315,4919
315,4920
315,4921
315,4922
314,4923
314,4924
313,4925
313,4926
313,4927
313,4928
314,4929
314,4930
313,4931
314,4932
313,4933
313,4934
313,4935
313,4936
313,4937
312,4937
312,4938
313,4939
312,4940
312,4941
312,4942
312,4943
312,4944
312,4945
312,4946
311,4947
311,4948
311,4950
311,4951
311,4952
311,4953
311,4954
311,4955
311,4956
311,4957
311,4958
311,4959
312,4960
311,4961
311,4962
312,4963
312,4964
311,4965
311,4966
311,4967
311,4968
311,4969
311,4970
311,4971
311,4972
311,4973
311,4974
311,4975
311,4976
311,4977
311,4978
311,4979
312,4980
312,4981
312,4982
312,4983
312,4984
313,4985
313,4986
313,4987
313,4988
313,4988
313,4989
313,4990
313,4992
313,4993
313,4994
313,4995
312,4996
312,4997
312,4998
312,4999
312,5000
312,5001
312,5002
312,5003
312,5004
312,5005
312,5006
312,5007
312,5008
312,5009
312,5010
312,5011
312,5012
312,5013
312,5014
312,5015
311,5016
312,5017
311,5018
311,5019
311,5020
311,5021
311,5022
311,5023
311,5024
311,5025
311,5026
311,5027
311,5028
311,5029
311,5030
311,5031
311,5032
311,5033
312,5035
312,5036
312,5037
312,5038
312,5039
312,5040
312,5040
312,5041
311,5042
312,5043
312,5044
312,5045
311,5046
311,5047
311,5048
311,5049
310,5050
310,5051
310,5052
310,5053
310,5054
311,5055
311,5056
312,5057
312,5058
312,5059
312,5060
312,5061
312,5062
312,5063
312,5064
312,5065
313,5066
312,5067
312,5068
312,5069
312,5070
312,5071
313,5072
313,5073
313,5074
313,5075
313,5076
313,5078
312,5079
312,5080
312,5081
312,5082
312,5083
312,5084
312,5085
312,5086
312,5087
312,5088
312,5089
312,5090
312,5091
313,5091
312,5092
312,5093
312,5094
311,5095
311,5096
311,5097
311,5098
311,5099
311,5100
311,5101
311,5102
311,5103
311,5104
310,5105
310,5106
310,5107
310,5108
310,5109
310,5110
310,5111
310,5112
309,5113
309,5114
309,5115
309,5116
309,5117
309,5118
309,5120
310,5121
310,5122
310,5123
310,5124
310,5125
310,5126
310,5127
310,5128
310,5129
310,5130
310,5131
310,5132
309,5133
310,5134
310,5135
310,5136
310,5137
310,5138
310,5139
311,5140
311,5141
310,5142
310,5143
310,5144
310,5144
310,5145
310,5146
310,5147
310,5148
310,5149
309,5150
309,5151
309,5152
309,5153
309,5154
309,5155
309,5156
309,5157
309,5158
309,5159
309,5160
309,5161
308,5163
308,5164
308,5165
308,5166
308,5167
307,5168
307,5169
306,5170
306,5171
306,5172
306,5173
307,5174
307,5175
308,5176
309,5177
309,5178
310,5179
309,5180
309,5181
308,5182
308,5183
307,5184
307,5185
307,5186
308,5187
308,5188
308,5189
308,5190
308,5191
308,5192
308,5193
308,5194
309,5195
309,5195
309,5196
309,5197
309,5198
309,5199
309,5200
309,5201
309,5202
308,5203
308,5204
308,5206
308,5207
309,5208
309,5209
308,5210
308,5211
308,5212
308,5213
307,5214
307,5215
308,5216
308,5217
309,5218
309,5219
310,5220
310,5221
310,5222
310,5223
310,5224
309,5225
309,5226
309,5227
310,5228
310,5229
310,5230
311,5231
312,5232
312,5233
313,5234
313,5235
313,5236
312,5237
311,5238
310,5239
310,5240
310,5241
311,5242
312,5243
313,5244
313,5245
313,5246
313,5246
313,5248
312,5249
312,5250
313,5251
313,5252
313,5253
314,5254
314,5255
314,5256
315,5257
315,5258
314,5259
313,5260
312,5261
311,5262
312,5263
313,5264
315,5265
316,5266
316,5267
315,5268
314,5269
314,5270
313,5271
313,5272
313,5273
314,5274
315,5275
316,5276
316,5277
316,5278
316,5279
316,5280
317,5281
318,5282
319,5283
319,5284
320,5285
322,5286
326,5287
329,5288
332,5289
334,5291
333,5292
331,5293
328,5294
327,5295
326,5296
323,5297
321,5298
321,5299
321,5299
323,5300
325,5301
327,5302
329,5303
329,5304
329,5305
327,5306
325,5307
322,5308
323,5309
324,5310
327,5311
331,5312
335,5313
337,5314
335,5315
330,5316
324,5317
319,5318
316,5319
314,5320
314,5321
314,5322
314,5323
314,5324
314,5325
313,5326
312,5327
312,5328
311,5329
311,5330
311,5331
310,5332
309,5334
308,5335
306,5336
306,5337
307,5338
309,5339
313,5340
318,5341
325,5342
332,5343
338,5344
343,5345
345,5346
346,5347
345,5348
341,5349
338,5350
333,5350
330,5351
327,5352
325,5353
324,5354
324,5355
324,5356
324,5357
324,5358
325,5359
325,5360
325,5361
325,5362
324,5363
323,5364
322,5365
321,5366
322,5367
323,5368
326,5369
329,5370
332,5371
335,5372
337,5373
338,5374
338,5376
336,5377
335,5378
334,5379
335,5380
335,5381
337,5382
338,5383
338,5384
340,5385
339,5386
339,5387
339,5388
339,5389
338,5390
338,5391
336,5392
336,5393
336,5394
336,5395
336,5396
335,5397
333,5398
332,5399
331,5400
331,5401
332,5402
332,5402
332,5403
334,5404
335,5405
337,5406
339,5407
341,5408
342,5409
342,5410
341,5411
340,5412
338,5413
336,5414
334,5415
333,5416
332,5417
333,5419
334,5420
335,5421
339,5422
345,5423
350,5424
352,5425
353,5426
351,5427
349,5428
345,5429
342,5430
339,5431
339,5432
341,5433
342,5434
343,5435
344,5436
343,5437
343,5438
345,5439
346,5440
345,5441
343,5442
340,5443
336,5444
331,5445
327,5446
324,5447
321,5448
320,5449
320,5450
322,5451
323,5452
325,5453
328,5453
331,5454
336,5455
341,5456
346,5457
349,5458
350,5459
348,5460
345,5462
341,5463
339,5464
337,5465
336,5466
335,5467
334,5468
333,5469
331,5470
330,5471
330,5472
331,5473
333,5474
335,5475
336,5476
338,5477
340,5478
341,5479
341,5480
342,5481
344,5482
344,5483
342,5484
340,5485
339,5486
338,5487
338,5488
338,5489
339,5490
339,5491
338,5492
336,5493
333,5494
330,5495
330,5496
332,5497
332,5498
332,5499
332,5500
331,5501
327,5502
325,5504
323,5505
321,5506
320,5506
320,5507
320,5508
319,5509
317,5510
316,5511
316,5512
316,5513
317,5514
316,5515
315,5516
315,5517
316,5518
317,5519
319,5520
322,5521
326,5522
329,5523
332,5524
334,5525
334,5526
335,5527
336,5528
338,5529
344,5530
349,5531
352,5532
354,5533
351,5534
348,5535
343,5536
339,5537
336,5538
332,5539
327,5540
324,5541
323,5542
324,5543
325,5544
326,5545
328,5547
331,5548
333,5549
336,5550
338,5551
341,5552
346,5553
350,5554
354,5555
356,5556
355,5557
351,5557
345,5558
338,5559
332,5560
326,5561
321,5562
320,5563
320,5564
321,5565
322,5566
322,5567
322,5568
323,5569
324,5570
326,5571
326,5572
327,5573
327,5574
326,5575
325,5576
322,5577
320,5578
319,5579
321,5580
326,5581
332,5582
335,5583
338,5584
338,5585
336,5586
331,5587
324,5588
320,5590
317,5591
317,5592
318,5593
317,5594
316,5595
314,5596
315,5597
318,5598
321,5599
324,5600
325,5601
326,5602
327,5603
327,5604
328,5605
329,5606
330,5607
329,5608
327,5609
327,5609
326,5610
326,5611
325,5612
325,5613
325,5614
325,5615
323,5616
320,5617
315,5618
312,5619
309,5620
310,5621
311,5622
313,5623
315,5624
316,5625
316,5626
316,5627
318,5628
324,5629
327,5630
331,5632
335,5633
340,5634
340,5635
340,5636
338,5637
334,5638
331,5639
327,5640
323,5641
319,5642
315,5643
313,5644
311,5645
312,5646
312,5647
312,5648
313,5649
313,5650
313,5651
311,5652
307,5653
304,5654
303,5655
301,5656
304,5657
314,5658
323,5659
330,5660
334,5660
336,5661
335,5662
331,5663
323,5664
316,5665
311,5666
308,5667
307,5668
306,5669
307,5670
309,5671
311,5672
313,5673
315,5675
317,5676
319,5677
318,5678
316,5679
313,5680
309,5681
307,5682
306,5683
307,5684
309,5685
311,5686
312,5687
309,5688
304,5689
301,5690
304,5691
306,5692
309,5693
311,5694
310,5695
311,5696
309,5697
305,5698
302,5699
302,5700
304,5701
306,5702
308,5703
311,5704
315,5705
317,5706
318,5707
318,5708
317,5709
315,5710
313,5711
313,5711
315,5712
316,5713
316,5714
319,5715
321,5716
319,5718
316,5719
312,5720
309,5721
308,5722
309,5723
310,5724
310,5725
314,5726
316,5727
317,5728
317,5729
317,5730
315,5731
313,5732
311,5733
309,5734
307,5735
306,5736
308,5737
309,5738
308,5739
307,5740
304,5741
301,5742
302,5743
304,5744
307,5745
315,5746
321,5747
326,5748
327,5749
325,5750
319,5751
311,5752
304,5753
300,5754
302,5755
306,5756
312,5757
314,5758
314,5760
313,5761
310,5762
307,5763
304,5764
302,5764
301,5765
303,5766
306,5767
306,5768
303,5769
300,5770
298,5771
296,5772
294,5773
292,5774
292,5775
291,5776
293,5777
295,5778
298,5779
301,5780
304,5781
307,5782
313,5783
318,5784
321,5785
325,5786
329,5787
333,5788
334,5789
332,5790
330,5791
326,5792
322,5793
316,5794
311,5795
305,5796
301,5797
300,5798
300,5799
300,5800
301,5801
301,5803
302,5804
304,5805
304,5806
303,5807
302,5808
300,5809
299,5810
297,5811
296,5812
296,5813
296,5814
299,5815
301,5815
304,5816
306,5817
307,5818
309,5819
313,5820
314,5821
316,5822
320,5823
327,5824
331,5825
330,5826
326,5827
322,5828
317,5829
310,5830
303,5831
297,5832
294,5833
291,5834
291,5835
290,5836
290,5837
293,5838
298,5839
301,5840
304,5841
304,5842
303,5843
300,5844
298,5846
297,5847
296,5848
296,5849
296,5850
296,5851
302,5852
308,5853
316,5854
322,5855
328,5856
331,5857
328,5858
326,5859
325,5860
320,5861
315,5862
309,5863
305,5864
307,5865
311,5866
313,5866
314,5867
315,5868
316,5869
315,5870
314,5871
313,5872
312,5873
313,5874
315,5875
314,5876
313,5877
312,5878
309,5879
305,5880
302,5881
298,5882
296,5883
297,5884
298,5885
298,5886
297,5888
296,5889
296,5890
296,5891
299,5892
305,5893
313,5894
319,5895
322,5896
322,5897
319,5898
314,5899
307,5900
302,5901
298,5902
296,5903
294,5904
293,5905
292,5906
294,5907
300,5908
304,5909
308,5910
311,5911
312,5912
312,5913
309,5914
306,5915
307,5916
312,5917
318,5918
324,5918
329,5919
329,5920
327,5921
326,5922
322,5923
316,5924
314,5925
315,5926
318,5927
322,5928
325,5929
324,5931
322,5932
320,5933
316,5934
311,5935
305,5936
301,5937
300,5938
301,5939
302,5940
304,5941
305,5942
305,5943
303,5944
299,5945
296,5946
293,5947
292,5948
291,5949
290,5950
290,5951
291,5952
291,5953
293,5954
297,5955
301,5956
305,5957
307,5958
306,5959
304,5960
302,5961
299,5962
298,5963
300,5964
304,5965
308,5966
309,5967
309,5968
307,5969
306,5969
305,5970
306,5971
306,5972
308,5974
313,5975
315,5976
316,5977
317,5978
320,5979
323,5980
327,5981
332,5982
332,5983
328,5984
321,5985
313,5986
305,5987
298,5988
295,5989
294,5990
295,5991
298,5992
301,5993
306,5994
308,5995
310,5996
311,5997
311,5998
310,5999
307,6000
304,6001
301,6002
299,6003
296,6004
293,6005
294,6006
296,6007
297,6008
298,6009
300,6010
303,6011
307,6012
311,6013
318,6014
322,6016
324,6017
325,6018
324,6019
318,6020
310,6021
304,6022
300,6022
298,6023
297,6024
297,6025
296,6026
296,6027
295,6028
294,6029
294,6030
295,6031
295,6032
296,6033
296,6034
294,6035
294,6036
296,6037
297,6038
298,6039
300,6040
302,6041
304,6042
305,6043
308,6044
311,6045
317,6046
320,6047
322,6048
325,6049
328,6050
329,6051
325,6052
320,6053
313,6054
305,6055
301,6056
296,6057
293,6059
295,6060
300,6061
307,6062
312,6063
317,6064
319,6065
321,6066
321,6067
320,6068
319,6069
318,6070
317,6071
316,6072
315,6073
312,6073
311,6074
310,6075
310,6076
309,6077
309,6078
309,6079
309,6080
309,6081
307,6082
303,6083
298,6084
295,6085
292,6086
291,6087
291,6088
290,6089
289,6090
290,6091
292,6092
295,6093
296,6094
298,6095
298,6096
299,6097
300,6098
300,6099
303,6100
305,6102
307,6103
309,6104
310,6105
310,6106
314,6107
316,6108
317,6109
318,6110
317,6111
315,6112
312,6113
309,6114
308,6115
312,6116
318,6117
322,6118
323,6119
323,6120
318,6121
312,6122
306,6123
305,6124
305,6125
307,6125
309,6126
311,6127
311,6128
312,6129
312,6130
311,6131
311,6132
310,6133
307,6134
305,6135
305,6136
303,6137
304,6138
305,6139
307,6140
307,6141
308,6142
309,6144
309,6145
310,6146
311,6147
309,6148
306,6149
304,6150
302,6151
298,6152
294,6153
291,6154
290,6155
290,6156
292,6157
291,6158
292,6159
293,6160
295,6161
301,6162
306,6163
311,6164
315,6165
317,6166
315,6167
310,6168
306,6169
303,6170
306,6171
315,6172
322,6173
326,6174
328,6175
327,6176
323,6176
319,6177
313,6178
311,6179
309,6180
307,6181
303,6182
300,6183
297,6184
294,6185
294,6187
295,6188
299,6189
307,6190
314,6191
319,6192
321,6193
322,6194
321,6195
318,6196
317,6197
317,6198
316,6199
314,6200
312,6201
311,6202
310,6203
314,6204
318,6205
321,6206
324,6207
326,6208
326,6209
323,6210
316,6211
308,6212
301,6213
297,6214
293,6215
292,6216
291,6217
291,6218
288,6219
287,6220
286,6221
285,6222
285,6223
286,6224
288,6225
289,6226
292,6227
294,6228
296,6228
298,6230
302,6231
306,6232
309,6233
311,6234
320,6235
329,6236
335,6237
339,6238
340,6239
336,6240
327,6241
315,6242
306,6243
301,6244
300,6245
300,6246
299,6247
297,6248
296,6249
294,6250
293,6251
292,6252
292,6253
293,6254
297,6255
299,6256
300,6257
302,6258
303,6259
304,6260
304,6261
304,6262
304,6263
305,6264
306,6265
308,6266
310,6267
316,6268
324,6269
328,6270
330,6272
332,6273
334,6274
329,6275
322,6276
312,6277
304,6278
299,6279
296,6280
293,6280
293,6281
293,6282
294,6283
298,6284
300,6285
303,6286
306,6287
307,6288
307,6289
308,6290
307,6291
305,6292
303,6293
302,6294
302,6295
303,6296
307,6297
311,6298
316,6299
319,6300
318,6301
315,6302
309,6303
304,6304
304,6305
305,6306
306,6307
307,6308
308,6309
309,6310
308,6311
306,6312
305,6313
306,6315
306,6316
305,6317
304,6318
301,6319
304,6320
309,6321
317,6322
326,6323
335,6324
340,6325
339,6326
334,6327
326,6328
317,6329
311,6330
306,6331
302,6332
297,6332
293,6333
290,6334
287,6335
285,6336
284,6337
284,6338
287,6339
289,6340
292,6341
297,6342
303,6343
306,6344
308,6345
311,6346
315,6347
318,6348
322,6349
326,6350
329,6351
329,6352
328,6353
324,6354
319,6355
314,6356
310,6358
308,6359
305,6360
301,6361
299,6362
302,6363
304,6364
304,6365
305,6366
306,6367
309,6368
311,6369
310,6370
308,6371
306,6372
304,6373
304,6374
305,6375
307,6376
309,6377
312,6378
313,6379
313,6380
310,6381
308,6382
309,6383
310,6384
311,6384
310,6385
308,6386
306,6387
303,6388
301,6389
298,6390
296,6391
296,6392
299,6393
303,6394
304,6395
305,6396
309,6397
315,6398
318,6400
318,6401
317,6402
316,6403
313,6404
311,6405
313,6406
317,6407
320,6408
324,6409
326,6410
324,6411
320,6412
318,6413
316,6414
313,6415
311,6416
309,6417
306,6418
302,6419
299,6420
298,6421
298,6422
299,6423
298,6424
297,6425
296,6426
297,6427
298,6428
300,6429
302,6430
306,6431
312,6432
317,6433
321,6434
325,6435
329,6436
329,6436
323,6437
318,6438
314,6439
313,6440
313,6441
312,6443
312,6444
312,6445
311,6446
309,6447
308,6448
307,6449
306,6450
306,6451
310,6452
313,6453
317,6454
319,6455
318,6456
317,6457
317,6458
314,6459
309,6460
306,6461
302,6462
301,6463
299,6464
298,6465
297,6466
297,6467
302,6468
308,6469
313,6470
318,6471
322,6472
323,6473
320,6474
315,6475
309,6476
307,6477
313,6478
322,6479
326,6480
329,6481
330,6482
326,6483
317,6484
307,6486
300,6487
297,6488
298,6489
299,6489
299,6490
302,6491
302,6492
302,6493
301,6494
298,6495
297,6496
295,6497
293,6498
293,6499
294,6500
296,6501
297,6502
299,6503
301,6504
305,6505
308,6506
310,6507
311,6508
312,6509
319,6510
331,6511
339,6512
345,6513
348,6514
349,6515
342,6516
330,6517
318,6518
310,6519
305,6520
302,6521
301,6522
301,6523
303,6524
306,6525
310,6526
314,6528
316,6529
320,6530
324,6531
326,6532
328,6533
328,6534
325,6535
318,6536
308,6537
298,6538
293,6539
292,6540
293,6541
296,6541
297,6542
300,6543
305,6544
309,6545
312,6546
314,6547
313,6548
314,6549
318,6550
321,6551
322,6552
321,6553
321,6554
321,6555
322,6556
323,6557
324,6558
323,6559
320,6560
318,6561
314,6562
309,6563
305,6564
301,6565
300,6566
301,6567
301,6568
300,6569
301,6571
301,6572
302,6573
302,6574
303,6575
302,6576
301,6577
301,6578
302,6579
310,6580
321,6581
330,6582
339,6583
343,6584
343,6585
337,6586
329,6587
320,6588
313,6589
308,6590
306,6591
304,6592
303,6592
303,6593
303,6594
307,6595
313,6596
317,6597
318,6598
318,6599
316,6600
311,6601
306,6602
300,6603
295,6604
295,6605
297,6606
297,6607
299,6608
301,6609
302,6610
303,6611
305,6612
305,6614
305,6615
305,6616
303,6617
302,6618
303,6619
303,6620
305,6621
313,6622
320,6623
326,6624
331,6625
336,6626
338,6627
335,6628
328,6629
322,6630
317,6631
311,6632
304,6633
300,6634
297,6635
295,6636
296,6637
298,6638
299,6639
304,6640
311,6641
316,6642
318,6643
320,6643
321,6644
321,6645
320,6646
320,6647
320,6648
319,6649
319,6650
318,6651
317,6652
315,6653
315,6654
312,6656
310,6657
309,6658
309,6659
308,6660
310,6661
311,6662
312,6663
315,6664
317,6665
318,6666
316,6667
313,6668
312,6669
311,6670
312,6671
314,6672
315,6673
313,6674
310,6675
309,6676
312,6677
313,6678
313,6679
312,6680
310,6681
307,6682
303,6683
301,6684
303,6685
306,6686
310,6687
312,6688
314,6689
315,6690
314,6691
311,6692
313,6693
317,6694
320,6695
321,6695
321,6696
320,6697
318,6699
314,6700
310,6701
305,6702
301,6703
299,6704
298,6705
300,6706
302,6707
305,6708
306,6709
307,6710
305,6711
302,6712
298,6713
297,6714
301,6715
307,6716
314,6717
319,6718
322,6719
324,6720
330,6721
333,6722
333,6723
330,6724
325,6725
318,6726
311,6727
309,6728
309,6729
313,6730
320,6731
327,6732
327,6733
324,6734
320,6735
315,6736
309,6737
304,6738
299,6739
296,6740
296,6742
296,6743
298,6744
302,6745
304,6746
303,6747
304,6747
306,6748
306,6749
306,6750
305,6751
303,6752
300,6753
297,6754
296,6755
294,6756
294,6757
300,6758
309,6759
320,6760
331,6761
338,6762
340,6763
337,6764
329,6765
319,6766
312,6767
304,6768
296,6769
294,6770
297,6771
302,6772
306,6773
308,6774
311,6775
312,6776
310,6777
306,6778
304,6779
302,6780
305,6781
313,6782
320,6784
325,6785
327,6786
323,6787
320,6788
315,6789
311,6790
304,6791
297,6792
293,6793
294,6794
295,6795
297,6796
298,6797
301,6798
306,6798
307,6799
306,6800
304,6801
301,6802
300,6803
299,6804
295,6805
292,6806
290,6807
289,6808
290,6809
292,6810
297,6811
304,6812
310,6813
314,6814
314,6815
314,6816
312,6817
308,6818
305,6819
302,6820
302,6821
303,6822
302,6823
301,6824
302,6825
307,6827
313,6828
318,6829
320,6830
318,6831
314,6832
309,6833
302,6834
297,6835
294,6836
295,6837
296,6838
299,6839
305,6840
310,6841
317,6842
322,6843
326,6844
330,6845
332,6846
331,6847
329,6848
328,6849
324,6850
321,6850
318,6851
315,6852
314,6853
314,6854
313,6855
310,6856
307,6857
305,6858
304,6859
303,6860
303,6861
303,6862
303,6863
302,6864
300,6865
298,6866
296,6867
296,6868
301,6870
307,6871
314,6872
319,6873
324,6874
328,6875
327,6876
321,6877
315,6878
310,6879
307,6880
306,6881
306,6882
311,6883
317,6884
322,6885
329,6886
332,6887
332,6888
327,6889
319,6890
311,6891
301,6892
293,6893
291,6894
288,6895
287,6896
287,6897
286,6898
286,6899
288,6900
292,6901
295,6901
298,6902
300,6903
303,6904
303,6905
301,6906
298,6907
297,6908
299,6909
304,6910
308,6912
312,6913
319,6914
327,6915
333,6916
336,6917
338,6918
339,6919
337,6920
332,6921
325,6922
319,6923
314,6924
312,6925
309,6926
304,6927
304,6928
305,6929
306,6930
307,6931
307,6932
305,6933
302,6934
298,6935
295,6936
294,6937
298,6938
303,6939
309,6940
312,6941
315,6942
316,6943
314,6944
311,6945
308,6946
304,6947
301,6948
300,6949
301,6950
303,6951
307,6952
313,6953
316,6953
319,6955
319,6956
315,6957
308,6958
302,6959
298,6960
296,6961
296,6962
296,6963
297,6964
300,6965
304,6966
306,6967
308,6968
309,6969
311,6970
311,6971
310,6972
311,6973
313,6974
316,6975
320,6976
324,6977
326,6978
325,6979
325,6980
322,6981
319,6982
316,6983
313,6984
311,6985
310,6986
309,6987
307,6988
306,6989
304,6990
299,6991
298,6992
295,6993
294,6994
292,6995
292,6996
292,6998
295,6999
299,7000
304,7001
308,7002
314,7003
317,7004
318,7005
318,7005
321,7006
325,7007
328,7008
327,7009
325,7010
320,7011
314,7012
310,7013
309,7014
308,7015
310,7016
313,7017
312,7018
310,7019
308,7020
309,7021
309,7022
306,7023
302,7024
301,7025
301,7026
301,7027
301,7028
305,7029
314,7030
322,7031
328,7032
330,7033
326,7034
321,7035
313,7036
304,7037
298,7038
298,7040
300,7041
302,7042
303,7043
302,7044
301,7045
299,7046
297,7047
295,7048
294,7049
296,7050
298,7051
302,7052
305,7053
310,7054
313,7055
314,7056
319,7056
323,7057
324,7058
324,7059
323,7060
323,7061
322,7062
318,7063
315,7064
318,7065
324,7066
330,7067
333,7068
333,7069
330,7070
324,7071
317,7072
308,7073
300,7074
294,7075
290,7076
288,7077
287,7078
289,7079
292,7080
295,7081
299,7083
306,7084
314,7085
320,7086
325,7087
326,7088
323,7089
317,7090
310,7091
307,7092
305,7093
307,7094
312,7095
316,7096
317,7097
314,7098
311,7099
307,7100
301,7101
296,7102
292,7103
290,7104
290,7105
291,7106
293,7107
297,7108
305,7108
312,7109
318,7110
323,7111
323,7112
321,7113
320,7114
318,7115
316,7116
318,7117
324,7118
325,7119
323,7120
319,7121
315,7122
312,7123
310,7124
309,7126
308,7127
308,7128
305,7129
303,7130
301,7131
300,7132
301,7133
303,7134
304,7135
307,7136
312,7137
316,7138
321,7139
324,7140
325,7141
324,7142
320,7143
316,7144
315,7145
316,7146
315,7147
314,7148
311,7149
308,7150
304,7151
303,7152
306,7153
310,7154
311,7155
313,7156
313,7157
312,7158
309,7159
306,7159
304,7160
304,7161
304,7162
305,7163
309,7164
316,7165
321,7166
325,7168
326,7169
325,7170
322,7171
320,7172
318,7173
315,7174
312,7175
310,7176
306,7177
301,7178
298,7179
296,7180
294,7181
293,7182
296,7183
303,7184
310,7185
315,7186
318,7187
319,7188
317,7189
310,7190
301,7191
296,7192
294,7193
295,7194
298,7195
301,7196
302,7197
305,7198
309,7199
311,7200
312,7201
313,7202
311,7203
309,7204
308,7205
307,7206
308,7207
313,7208
318,7209
323,7211
326,7211
327,7212
326,7213
321,7214
314,7215
310,7216
306,7217
304,7218
303,7219
303,7220
300,7221
299,7222
300,7223
300,7224
307,7225
318,7226
328,7227
333,7228
335,7229
333,7230
328,7231
323,7232
317,7233
314,7234
314,7235
318,7236
321,7237
322,7238
322,7239
321,7240
318,7241
314,7242
314,7243
318,7244
320,7245
323,7246
324,7247
323,7248
319,7249
311,7250
304,7251
297,7252
294,7254
296,7255
298,7256
298,7257
300,7258
301,7259
301,7260
299,7261
297,7262
293,7263
293,7263
293,7264
296,7265
298,7266
302,7267
310,7268
317,7269
324,7270
328,7271
329,7272
326,7273
319,7274
311,7275
304,7276
299,7277
296,7278
295,7279
295,7280
296,7281
295,7282
295,7283
295,7284
296,7285
298,7286
300,7287
303,7288
310,7289
319,7290
322,7291
323,7292
325,7293
325,7294
324,7296
322,7297
323,7298
323,7299
324,7300
326,7301
326,7302
323,7303
320,7304
315,7305
311,7306
308,7307
310,7308
311,7309
309,7310
309,7311
310,7312
308,7313
303,7314
299,7314
296,7315
293,7316
295,7317
297,7318
302,7319
308,7320
313,7321
317,7322
318,7323
317,7324
316,7325
314,7326
314,7327
315,7328
315,7329
315,7330
312,7331
307,7332
303,7333
299,7334
295,7335
291,7336
288,7337
288,7339
287,7340
287,7341
288,7342
291,7343
295,7344
299,7345
308,7346
319,7347
330,7348
340,7349
346,7350
348,7351
346,7352
344,7353
338,7354
330,7355
324,7356
318,7357
309,7358
301,7359
296,7360
294,7361
294,7362
296,7363
300,7364
303,7365
307,7365
313,7366
320,7367
327,7368
333,7369
333,7370
332,7371
332,7372
328,7373
321,7374
312,7375
305,7376
302,7377
302,7378
305,7379
311,7380
319,7382
327,7383
331,7384
332,7385
328,7386
323,7387
316,7388
309,7389
304,7390
304,7391
306,7392
310,7393
313,7394
318,7395
326,7396
329,7397
331,7398
332,7399
330,7400
326,7401
322,7402
314,7403
307,7404
300,7405
297,7406
293,7407
289,7408
286,7409
286,7410
290,7411
295,7412
300,7413
303,7414
305,7415
307,7416
307,7417
308,7417
311,7418
312,7419
319,7420
323,7421
327,7422
329,7424
328,7425
324,7426
319,7427
315,7428
310,7429
307,7430
305,7431
305,7432
305,7433
305,7434
305,7435
306,7436
307,7437
308,7438
308,7439
305,7440
302,7441
300,7442
300,7443
300,7444
300,7445
299,7446
301,7447
303,7448
304,7449
304,7450
305,7451
308,7452
313,7453
319,7454
327,7455
335,7456
341,7457
343,7458
341,7459
336,7460
333,7461
331,7462
328,7463
325,7464
321,7465
320,7467
319,7468
316,7469
317,7469
322,7470
326,7471
329,7472
328,7473
325,7474
323,7475
321,7476
320,7477
319,7478
320,7479
319,7480
317,7481
313,7482
315,7483
316,7484
318,7485
318,7486
313,7487
308,7488
301,7489
292,7490
285,7491
281,7492
281,7493
284,7494
287,7495
292,7496
300,7497
307,7498
311,7499
313,7500
315,7501
316,7502
315,7503
312,7504
310,7505
308,7506
306,7507
305,7508
306,7510
307,7511
309,7512
314,7513
318,7514
323,7515
325,7516
325,7517
322,7518
320,7519
315,7520
311,7520
311,7521
314,7522
317,7523
319,7524
317,7525
314,7526
313,7527
313,7528
315,7529
319,7530
323,7531
330,7532
333,7533
332,7534
331,7535
329,7536
327,7537
323,7538
320,7539
320,7540
321,7541
321,7542
318,7543
315,7544
313,7545
311,7546
308,7547
306,7548
304,7549
303,7550
301,7552
301,7553
299,7554
299,7555
302,7556
305,7557
308,7558
311,7559
313,7560
313,7561
309,7562
304,7563
300,7564
297,7565
297,7566
298,7567
299,7568
300,7569
302,7570
304,7571
307,7571
309,7572
310,7573
311,7574
308,7575
305,7576
302,7577
298,7578
296,7579
294,7580
298,7581
304,7582
311,7583
321,7584
331,7585
336,7586
335,7587
331,7588
324,7589
316,7590
310,7591
307,7592
307,7593
308,7595
308,7596
310,7597
313,7598
313,7599
312,7600
312,7601
312,7602
312,7603
310,7604
309,7605
307,7606
305,7607
305,7608
306,7609
307,7610
310,7611
315,7612
322,7613
324,7614
326,7615
329,7616
326,7617
320,7618
314,7619
306,7620
303,7621
305,7622
307,7623
308,7623
309,7624
310,7625
310,7626
309,7627
310,7628
312,7629
314,7630
318,7631
321,7632
320,7633
315,7634
309,7635
303,7636
298,7638
298,7639
301,7640
303,7641
305,7642
307,7643
308,7644
308,7645
307,7646
305,7647
304,7648
306,7649
307,7650
312,7651
319,7652
325,7653
329,7654
329,7655
328,7656
324,7657
320,7658
316,7659
312,7660
308,7661
307,7662
307,7663
307,7664
309,7665
312,7666
312,7667
312,7668
310,7669
309,7670
305,7671
304,7672
302,7673
303,7674
309,7675
316,7676
321,7676
324,7677
324,7678
326,7680
328,7681
328,7682
327,7683
327,7684
326,7685
323,7686
317,7687
310,7688
305,7689
303,7690
304,7691
308,7692
311,7693
315,7694
319,7695
322,7696
322,7697
319,7698
316,7699
315,7700
316,7701
317,7702
318,7703
319,7704
316,7705
312,7706
308,7707
308,7708
306,7709
303,7710
304,7711
306,7712
308,7713
311,7714
313,7715
315,7716
318,7717
320,7718
322,7719
321,7720
319,7721
318,7723
315,7724
312,7725
309,7726
308,7727
304,7728
302,7728
303,7729
307,7730
308,7731
309,7732
310,7733
310,7734
306,7735
302,7736
296,7737
294,7738
297,7739
304,7740
310,7741
314,7742
317,7743
317,7744
317,7745
317,7746
316,7747
314,7748
316,7749
317,7750
317,7751
316,7752
313,7753
311,7754
310,7755
308,7756
306,7757
307,7758
309,7759
312,7760
313,7761
312,7762
312,7763
313,7764
313,7766
313,7767
311,7768
309,7769
307,7770
305,7771
303,7772
304,7773
307,7774
311,7775
313,7776
313,7777
314,7778
312,7779
309,7780
307,7780
305,7781
304,7782
304,7783
306,7784
309,7785
314,7786
321,7787
328,7788
332,7789
334,7790
331,7791
326,7792
320,7793
315,7794
313,7795
312,7796
315,7797
322,7798
328,7799
331,7800
331,7801
327,7802
322,7803
316,7804
308,7805
304,7806
302,7808
303,7809
305,7810
305,7811
305,7812
303,7813
300,7814
298,7815
298,7816
296,7817
296,7818
300,7819
307,7820
314,7821
319,7822
321,7823
321,7824
323,7825
320,7826
316,7827
316,7828
319,7829
323,7830
326,7831
327,7831
325,7832
319,7833
312,7834
305,7835
299,7836
295,7837
292,7838
291,7839
291,7840
291,7841
295,7842
297,7843
299,7844
302,7845
303,7846
303,7847
303,7848
303,7849
306,7851
311,7852
316,7853
318,7854
321,7855
328,7856
332,7857
334,7858
335,7859
334,7860
328,7861
320,7862
313,7863
309,7864
310,7865
310,7866
311,7867
311,7868
310,7869
310,7870
309,7871
306,7872
302,7873
300,7874
299,7875
301,7876
308,7877
316,7878
321,7879
325,7880
324,7881
320,7882
313,7882
306,7883
299,7884
296,7885
297,7886
302,7887
305,7888
311,7889
316,7890
319,7891
320,7892
318,7894
314,7895
307,7896
301,7897
295,7898
291,7899
288,7900
287,7901
287,7902
288,7903
294,7904
301,7905
307,7906
311,7907
312,7908
312,7909
309,7910
304,7911
301,7912
300,7913
303,7914
309,7915
320,7916
333,7917
342,7918
348,7919
351,7920
350,7921
342,7922
332,7923
322,7924
314,7925
307,7926
304,7927
305,7928
306,7929
307,7930
308,7931
311,7932
314,7933
313,7934
312,7934
310,7936
309,7937
309,7938
309,7939
309,7940
307,7941
306,7942
309,7943
310,7944
312,7945
316,7946
320,7947
321,7948
318,7949
313,7950
308,7951
305,7952
303,7953
301,7954
302,7955
301,7956
301,7957
301,7958
300,7959
302,7960
303,7961
303,7962
304,7963
305,7964
304,7965
304,7966
302,7967
303,7968
314,7969
328,7970
338,7971
344,7972
345,7973
344,7974
338,7975
327,7976
319,7977
313,7979
309,7980
309,7981
309,7982
308,7983
307,7984
307,7985
307,7986
312,7986
320,7987
331,7988
336,7989
338,7990
340,7991
339,7992
335,7993
327,7994
320,7995
313,7996
308,7997
303,7998
299,7999
294,8000
292,8001
291,8002
290,8003
289,8004
292,8005
299,8006
305,8007
310,8008
314,8009
315,8010
310,8011
303,8012
298,8013
293,8014
296,8015
301,8016
305,8017
308,8018
312,8019
318,8020
322,8022
324,8023
325,8024
325,8025
322,8026
317,8027
310,8028
301,8029
296,8030
293,8031
290,8032
288,8033
286,8034
285,8035
285,8036
285,8037
287,8038
295,8038
305,8039
313,8040
321,8041
327,8042
329,8043
326,8044
325,8045
321,8046
316,8047
314,8048
311,8049
309,8050
311,8051
312,8052
312,8053
310,8054
310,8055
311,8056
311,8057
313,8058
317,8059
321,8060
326,8061
329,8062
329,8064
326,8065
322,8066
318,8067
316,8068
317,8069
319,8070
321,8071
322,8072
322,8073
321,8074
316,8075
309,8076
305,8077
302,8078
299,8079
298,8080
298,8081
299,8082
300,8083
303,8084
310,8085
317,8086
323,8087
328,8088
327,8089
325,8089
322,8090
319,8091
313,8092
314,8093
315,8094
315,8095
314,8096
310,8097
303,8098
298,8099
294,8100
291,8101
291,8102
294,8103
299,8104
305,8105
312,8107
320,8108
326,8109
329,8110
330,8111
328,8112
326,8113
324,8114
323,8115
324,8116
327,8117
331,8118
333,8119
333,8120
330,8121
325,8122
318,8123
311,8124
307,8125
310,8126
312,8127
315,8128
316,8129
317,8130
318,8131
315,8132
311,8133
310,8134
307,8135
304,8136
302,8137
300,8138
295,8139
290,8140
290,8141
290,8141
291,8142
292,8143
295,8144
298,8145
302,8146
306,8147
309,8148
314,8150
319,8151
320,8152
320,8153
320,8154
321,8155
323,8156
325,8157
325,8158
327,8159
326,8160
323,8161
320,8162
317,8163
313,8164
309,8165
304,8166
302,8167
301,8168
303,8169
307,8170
313,8171
318,8172
322,8173
324,8174
322,8175
320,8176
319,8177
316,8178
316,8179
313,8180
311,8181
307,8182
304,8183
305,8184
304,8185
303,8186
302,8187
303,8188
305,8189
306,8190
308,8192
311,8193
316,8193
319,8194
323,8195
325,8196
326,8197
324,8198
325,8199
332,8200
337,8201
337,8202
334,8203
331,8204
326,8205
320,8206
312,8207
304,8208
299,8209
297,8210
300,8211
302,8212
303,8213
303,8214
303,8215
303,8216
301,8217
301,8218
301,8219
303,8220
304,8221
305,8222
306,8223
306,8224
306,8225
306,8226
306,8227
307,8228
310,8229
313,8230
315,8231
315,8232
316,8233
316,8235
314,8236
310,8237
305,8238
300,8239
297,8240
300,8241
306,8242
310,8243
314,8244
317,8245
317,8245
315,8246
313,8247
315,8248
320,8249
325,8250
327,8251
326,8252
325,8253
327,8254
327,8255
327,8256
326,8257
323,8258
321,8259
319,8260
316,8261
314,8262
314,8263
314,8264
313,8265
311,8266
309,8267
307,8268
308,8269
310,8270
312,8271
312,8272
313,8273
315,8274
315,8275
315,8276
313,8278
310,8279
304,8280
300,8281
296,8282
293,8283
292,8284
291,8285
292,8286
292,8287
294,8288
297,8289
303,8290
310,8291
316,8292
322,8293
327,8294
327,8295
326,8296
325,8296
324,8297
320,8298
318,8299
319,8300
319,8301
319,8302
315,8303
311,8304
308,8305
307,8306
307,8307
308,8308
308,8309
310,8310
310,8311
313,8312
320,8313
323,8314
325,8315
327,8316
329,8317
330,8318
330,8320
329,8321
328,8322
329,8323
333,8324
335,8325
335,8326
334,8327
332,8328
327,8329
319,8330
309,8331
298,8332
292,8333
289,8334
289,8335
293,8336
298,8337
300,8338
302,8339
303,8340
304,8341
305,8342
309,8343
318,8344
327,8345
335,8346
339,8347
338,8348
332,8348
323,8349
313,8350
302,8351
293,8352
289,8353
287,8354
286,8355
284,8356
285,8357
286,8358
286,8359
294,8360
306,8361
316,8363
325,8364
330,8365
332,8366
329,8367
322,8368
314,8369
307,8370
303,8371
303,8372
305,8373
309,8374
312,8375
311,8376
310,8377
310,8378
308,8379
305,8380
303,8381
304,8382
304,8383
304,8384
309,8385
313,8386
320,8387
326,8388
330,8389
333,8390
332,8391
327,8392
320,8393
315,8394
314,8395
315,8396
317,8397
317,8398
316,8399
315,8399
312,8400
311,8401
314,8402
322,8403
328,8404
329,8406
326,8407
322,8408
317,8409
311,8410
305,8411
299,8412
296,8413
296,8414
297,8415
299,8416
302,8417
306,8418
311,8419
314,8420
318,8421
319,8422
321,8423
321,8424
321,8425
325,8426
326,8427
326,8428
325,8429
321,8430
315,8431
308,8432
302,8433
297,8434
293,8435
288,8436
287,8437
290,8438
293,8439
299,8440
310,8441
320,8442
328,8443
332,8444
333,8445
331,8446
327,8448
321,8449
313,8450
307,8451
301,8451
296,8452
293,8453
292,8454
298,8455
305,8456
311,8457
315,8458
314,8459
312,8460
308,8461
304,8462
302,8463
301,8464
300,8465
300,8466
300,8467
302,8468
306,8469
312,8470
319,8471
324,8472
329,8473
331,8474
335,8475
339,8476
343,8477
346,8478
347,8479
346,8480
341,8481
334,8482
329,8483
324,8484
319,8485
316,8486
313,8487
309,8488
305,8489
299,8491
294,8492
290,8493
289,8494
289,8495
288,8496
287,8497
286,8498
286,8499
290,8500
296,8501
299,8502
301,8503
302,8503
302,8504
299,8505
295,8506
293,8507
292,8508
294,8509
299,8510
308,8511
318,8512
328,8513
333,8514
335,8515
333,8516
331,8517
325,8518
318,8519
310,8520
306,8521
305,8522
306,8523
308,8524
315,8525
319,8526
325,8527
331,8528
333,8529
335,8530
335,8531
334,8532
332,8534
332,8535
332,8536
333,8537
332,8538
329,8539
327,8540
326,8541
325,8542
320,8543
313,8544
307,8545
305,8546
304,8547
303,8548
303,8549
304,8550
304,8551
307,8552
309,8553
309,8554
311,8554
312,8555
309,8556
304,8557
299,8558
296,8559
292,8560
290,8561
290,8562
291,8563
293,8564
294,8565
294,8566
295,8567
295,8568
292,8569
293,8570
296,8571
300,8572
302,8573
303,8574
302,8576
304,8577
308,8578
315,8579
321,8580
326,8581
330,8582
330,8583
328,8584
323,8585
321,8586
322,8587
325,8588
330,8589
334,8590
337,8591
335,8592
329,8593
321,8594
313,8595
304,8596
300,8597
298,8598
299,8599
300,8600
302,8601
305,8602
314,8603
324,8604
331,8605
334,8605
335,8606
329,8607
320,8608
310,8609
302,8610
301,8611
301,8612
301,8613
303,8614
309,8615
313,8616
316,8617
318,8619
319,8620
319,8621
320,8622
320,8623
317,8624
312,8625
307,8626
300,8627
294,8628
292,8629
296,8630
301,8631
303,8632
304,8633
302,8634
298,8635
293,8636
289,8637
286,8638
288,8639
294,8640
300,8641
305,8642
309,8643
312,8644
318,8645
324,8646
326,8647
325,8648
324,8649
324,8650
322,8651
320,8652
319,8653
321,8654
323,8655
321,8656
317,8657
314,8657
318,8658
320,8659
321,8660
320,8662
320,8663
319,8664
318,8665
314,8666
312,8667
313,8668
316,8669
322,8670
325,8671
328,8672
331,8673
331,8674
328,8675
324,8676
320,8677
314,8678
313,8679
312,8680
311,8681
309,8682
308,8683
305,8684
304,8685
303,8686
302,8687
299,8688
300,8689
303,8690
305,8691
305,8692
303,8693
300,8694
299,8695
297,8696
300,8697
307,8698
313,8699
320,8700
322,8701
321,8702
318,8704
314,8705
309,8706
304,8707
300,8708
298,8709
299,8709
301,8710
307,8711
312,8712
314,8713
315,8714
315,8715
315,8716
313,8717
311,8718
309,8719
307,8720
306,8721
305,8722
305,8723
308,8724
310,8725
309,8726
308,8727
309,8728
311,8729
313,8730
315,8731
318,8732
325,8733
332,8734
337,8735
337,8736
334,8737
334,8738
334,8739
334,8740
331,8741
329,8742
327,8743
322,8744
316,8745
311,8747
310,8748
312,8749
314,8750
316,8751
317,8752
316,8753
315,8754
312,8755
309,8756
304,8757
301,8758
295,8759
292,8760
291,8760
289,8761
288,8762
290,8763
293,8764
300,8765
312,8766
324,8767
331,8768
332,8769
330,8770
326,8771
317,8772
306,8773
298,8774
293,8775
292,8776
294,8777
295,8778
298,8779
302,8780
305,8781
307,8782
307,8783
306,8784
309,8785
313,8786
315,8787
314,8788
311,8790
306,8791
299,8792
295,8793
299,8794
306,8795
313,8796
319,8797
321,8798
322,8799
319,8800
314,8801
308,8802
305,8803
306,8804
307,8805
311,8806
317,8807
322,8808
325,8809
326,8810
324,8811
320,8812
315,8812
312,8813
307,8814
303,8815
302,8816
303,8817
303,8818
304,8819
307,8820
312,8821
315,8822
318,8823
318,8824
318,8825
317,8826
314,8827
313,8828
313,8829
313,8830
312,8832
312,8833
309,8834
304,8835
299,8836
299,8837
302,8838
305,8839
308,8840
311,8841
310,8842
307,8843
300,8844
292,8845
287,8846
287,8847
288,8848
290,8849
293,8850
298,8851
302,8852
305,8853
309,8854
316,8855
324,8856
331,8857
334,8858
333,8859
330,8860
326,8861
322,8862
324,8863
330,8863
335,8864
338,8865
340,8866
340,8867
336,8868
329,8869
322,8870
315,8871
311,8872
310,8873
308,8875
305,8876
306,8877
309,8878
313,8879
317,8880
318,8881
318,8882
317,8883
315,8884
311,8885
306,8886
300,8887
295,8888
295,8889
297,8890
299,8891
304,8892
310,8893
314,8894
317,8895
319,8896
320,8897
318,8898
311,8899
305,8900
304,8901
306,8902
311,8903
317,8904
321,8905
323,8906
323,8907
321,8908
317,8909
310,8910
306,8911
303,8912
302,8913
303,8914
304,8914
304,8915
305,8916
305,8918
306,8919
309,8920
315,8921
321,8922
325,8923
328,8924
330,8925
330,8926
330,8927
329,8928
326,8929
324,8930
322,8931
319,8932
312,8933
305,8934
300,8935
297,8936
297,8937
299,8938
300,8939
301,8940
302,8941
301,8942
300,8943
300,8944
303,8945
313,8946
327,8947
338,8948
344,8949
347,8950
349,8951
348,8952
344,8953
337,8954
330,8955
322,8956
315,8957
308,8958
306,8960
309,8961
313,8962
316,8963
317,8964
317,8965
315,8966
310,8967
303,8967
298,8968
294,8969
292,8970
294,8971
297,8972
305,8973
313,8974
320,8975
326,8976
329,8977
328,8978
326,8979
323,8980
321,8981
317,8982
312,8983
307,8984
303,8985
301,8986
300,8987
302,8988
303,8989
307,8990
310,8991
313,8992
317,8993
317,8994
313,8995
307,8996
301,8997
296,8998
291,8999
289,9000
293,9001
299,9003
307,9004
313,9005
323,9006
333,9007
337,9008
338,9009
336,9010
333,9011
328,9012
322,9013
314,9014
308,9015
306,9016
305,9017
305,9018
304,9018
304,9019
303,9020
303,9021
304,9022
308,9023
313,9024
318,9025
320,9026
320,9027
320,9028
319,9029
320,9030
328,9031
335,9032
338,9033
340,9034
337,9035
332,9036
324,9037
314,9038
305,9039
299,9040
298,9041
300,9042
299,9043
298,9044
295,9046
293,9047
291,9048
293,9049
294,9050
296,9051
298,9052
300,9053
301,9054
302,9055
303,9056
303,9057
303,9058
302,9059
303,9060
303,9061
303,9062
310,9063
317,9064
324,9065
328,9066
329,9067
328,9068
324,9069
318,9070
314,9070
313,9071
314,9072
314,9073
313,9074
311,9075
311,9076
310,9077
308,9078
306,9079
306,9080
307,9081
314,9082
327,9083
342,9084
352,9085
359,9086
360,9088
356,9089
350,9090
342,9091
332,9092
321,9093
312,9094
302,9095
295,9096
290,9097
290,9098
292,9099
295,9100
298,9101
301,9102
304,9103
307,9104
310,9105
311,9106
310,9107
309,9108
307,9109
304,9110
300,9111
298,9112
299,9113
302,9114
311,9115
320,9116
326,9117
330,9118
333,9119
331,9120
327,9121
321,9122
314,9122
308,9123
305,9124
302,9125
300,9126
300,9127
302,9128
307,9129
310,9131
310,9132
309,9133
306,9134
302,9135
298,9136
296,9137
295,9138
295,9139
297,9140
304,9141
314,9142
325,9143
335,9144
342,9145
345,9146
344,9147
340,9148
334,9149
324,9150
319,9151
319,9152
319,9153
321,9154
322,9155
319,9156
315,9157
309,9158
303,9159
299,9160
299,9161
299,9162
302,9163
305,9164
311,9165
318,9166
321,9167
324,9168
332,9169
341,9170
348,9171
351,9172
350,9174
349,9174
343,9175
331,9176
319,9177
308,9178
300,9179
294,9180
288,9181
281,9182
277,9183
277,9184
282,9185
290,9186
298,9187
305,9188
309,9189
312,9190
311,9191
307,9192
305,9193
304,9194
303,9195
301,9196
298,9197
295,9198
294,9199
298,9200
304,9201
310,9202
319,9203
327,9204
333,9205
336,9206
338,9207
340,9208
340,9209
340,9210
337,9211
332,9212
324,9213
314,9214
305,9216
300,9217
300,9218
303,9219
305,9220
305,9221
305,9222
304,9223
303,9224
305,9225
306,9226
308,9226
313,9227
318,9228
322,9229
326,9230
330,9231
331,9232
330,9233
326,9234
320,9235
313,9236
306,9237
301,9238
303,9239
310,9240
316,9241
321,9242
323,9243
322,9244
317,9245
309,9246
303,9247
299,9248
297,9249
293,9250
291,9251
290,9252
291,9253
296,9254
303,9255
309,9256
314,9257
316,9259
317,9260
315,9261
309,9262
301,9263
293,9264
290,9265
290,9266
294,9267
301,9268
313,9269
327,9270
337,9271
343,9272
344,9273
341,9274
335,9275
325,9276
317,9277
309,9277
306,9278
306,9279
309,9280
313,9281
320,9282
324,9283
324,9284
323,9285
321,9286
321,9287
320,9288
316,9289
312,9290
309,9291
306,9292
306,9293
310,9294
314,9295
319,9296
322,9297
325,9298
326,9299
325,9300
325,9302
327,9303
329,9304
329,9305
327,9306
323,9307
319,9308
314,9309
311,9310
309,9311
311,9312
315,9313
318,9314
317,9315
317,9316
318,9317
320,9318
319,9319
316,9320
314,9321
314,9322
314,9323
314,9324
315,9325
314,9326
313,9327
309,9328
301,9329
294,9329
288,9330
286,9331
289,9332
294,9333
305,9334
316,9335
325,9336
332,9337
333,9338
333,9339
330,9340
323,9341
315,9342
308,9344
303,9345
300,9346
298,9347
300,9348
300,9349
302,9350
303,9351
304,9352
304,9353
305,9354
305,9355
305,9356
309,9357
315,9358
321,9359
326,9360
330,9361
335,9362
337,9363
337,9364
337,9365
334,9366
333,9367
328,9368
324,9369
318,9370
312,9371
311,9372
312,9373
313,9374
316,9375
321,9376
325,9377
332,9378
342,9379
348,9380
348,9381
344,9381
338,9382
329,9383
318,9384
305,9385
295,9387
288,9388
285,9389
283,9390
282,9391
281,9392
281,9393
281,9394
281,9395
281,9396
282,9397
283,9398
286,9399
290,9400
298,9401
306,9402
314,9403
321,9404
325,9405
333,9406
339,9407
343,9408
345,9409
346,9410
344,9411
337,9412
328,9413
314,9414
304,9415
297,9416
297,9417
298,9418
298,9419
299,9420
299,9421
299,9422
298,9423
297,9424
298,9425
300,9426
306,9427
315,9428
332,9430
351,9431
369,9432
380,9433
382,9433
377,9434
366,9435
350,9436
332,9437
316,9438
304,9439
298,9440
296,9441
293,9442
290,9443
289,9444
291,9445
300,9446
311,9447
321,9448
331,9449
337,9450
336,9451
329,9452
319,9453
308,9454
300,9455
298,9456
298,9457
297,9458
296,9459
294,9460
295,9461
296,9462
298,9463
301,9464
304,9465
307,9466
310,9467
312,9468
314,9469
319,9470
326,9472
331,9473
334,9474
335,9475
337,9476
339,9477
337,9478
328,9479
318,9480
311,9481
307,9482
305,9483
304,9484
304,9484
307,9485
313,9486
321,9487
330,9488
336,9489
338,9490
336,9491
333,9492
327,9493
321,9494
318,9495
318,9496
319,9497
320,9498
322,9499
325,9500
327,9501
328,9502
329,9503
332,9504
333,9505
331,9506
326,9507
321,9508
316,9509
311,9510
308,9511
307,9512
305,9513
302,9515
299,9516
297,9517
294,9518
291,9519
292,9520
292,9521
292,9522
293,9523
294,9524
297,9525
299,9526
303,9527
306,9528
306,9529
305,9530
303,9531
302,9532
303,9533
305,9534
308,9535
314,9536
321,9536
327,9537
328,9538
323,9539
315,9540
307,9541
300,9542
296,9543
294,9544
296,9545
304,9546
312,9547
318,9548
322,9549
325,9550
329,9551
331,9552
333,9553
333,9554
335,9555
336,9556
335,9558
330,9559
320,9560
310,9561
302,9562
296,9563
293,9564
294,9565
297,9566
301,9567
305,9568
310,9569
314,9570
317,9571
320,9572
320,9573
319,9574
317,9575
317,9576
315,9577
312,9578
310,9579
307,9580
306,9581
307,9582
307,9583
307,9584
308,9585
310,9586
311,9587
310,9588
307,9589
304,9589
302,9590
298,9591
295,9592
292,9593
291,9594
291,9595
289,9596
289,9597
289,9598
288,9600
288,9601
291,9602
293,9603
296,9604
299,9605
301,9606
304,9607
308,9608
311,9609
313,9610
314,9611
316,9612
317,9613
316,9614
322,9615
328,9616
333,9617
337,9618
340,9619
340,9620
336,9621
327,9622
318,9623
310,9624
306,9625
302,9626
299,9627
297,9628
296,9629
297,9630
299,9631
301,9632
303,9633
302,9634
303,9635
304,9636
303,9637
302,9638
301,9639
299,9640
298,9641
297,9641
298,9643
300,9644
301,9645
301,9646
302,9647
302,9648
301,9649
301,9650
301,9651
301,9652
302,9653
304,9654
307,9655
311,9656
314,9657
316,9658
316,9659
314,9660
311,9661
308,9662
303,9663
299,9664
296,9665
294,9666
293,9667
294,9668
297,9669
298,9670
300,9671
302,9672
306,9673
314,9674
322,9675
330,9676
336,9677
338,9678
336,9679
332,9680
324,9681
317,9682
312,9683
309,9684
308,9686
310,9687
312,9688
313,9689
313,9690
312,9691
310,9692
306,9693
302,9693
298,9694
295,9695
294,9696
294,9697
294,9698
295,9699
296,9700
298,9701
300,9702
302,9703
304,9704
304,9705
304,9706
304,9707
304,9708
303,9709
301,9710
300,9711
299,9712
298,9713
298,9714
298,9715
298,9716
298,9717
299,9718
300,9719
302,9720
303,9721
305,9722
306,9723
306,9724
308,9725
310,9726
311,9728
313,9729
314,9730
316,9731
318,9732
319,9733
318,9734
317,9735
316,9736
314,9737
311,9738
310,9739
311,9740
313,9741
314,9742
315,9743
318,9744
320,9744
323,9745
325,9746
326,9747
327,9748
326,9749
323,9750
320,9751
319,9752
319,9753
320,9754
321,9755
321,9756
320,9757
317,9758
315,9759
312,9760
311,9761
311,9762
311,9763
310,9764
310,9765
312,9766
313,9767
316,9768
318,9769
319,9771
318,9772
315,9773
312,9774
308,9775
305,9776
302,9777
299,9778
297,9779
295,9780
293,9781
292,9782
292,9783
291,9784
292,9785
291,9786
292,9787
292,9788
292,9789
293,9790
293,9791
293,9792
294,9793
294,9794
294,9795
294,9796
295,9796
296,9797
297,9798
298,9799
300,9800
301,9801
301,9802
302,9803
302,9804
302,9805
301,9806
302,9807
302,9808
301,9809
300,9810
300,9811
299,9812
299,9814
300,9815
301,9816
301,9817
302,9818
303,9819
304,9820
305,9821
306,9822
306,9823
306,9824
307,9825
310,9826
314,9827
318,9828
320,9829
321,9830
320,9831
319,9832
318,9833
316,9834
314,9835
312,9836
310,9837
310,9838
311,9839
311,9840
312,9841
312,9842
310,9843
308,9844
306,9845
305,9846
303,9847
302,9847
301,9848
299,9849
298,9850
297,9851
297,9852
296,9853
296,9854
296,9856
295,9857
295,9858
295,9859
296,9860
297,9861
298,9862
299,9863
300,9864
300,9865
299,9866
299,9867
299,9868
299,9869
298,9870
297,9871
297,9872
297,9873
297,9874
297,9875
297,9876
297,9877
297,9878
297,9879
297,9880
297,9881
297,9882
297,9883
297,9884
297,9885
298,9886
298,9887
298,9888
298,9889
298,9890
298,9891
299,9892
300,9893
302,9894
304,9895
306,9896
307,9897
309,9899
309,9900
310,9900
310,9901
309,9902
308,9903
307,9904
306,9905
305,9906
304,9907
305,9908
306,9909
307,9910
309,9911
311,9912
313,9913
313,9914
311,9915
310,9916
307,9917
306,9918
304,9919
304,9920
303,9921
302,9922
300,9923
299,9924
299,9925
298,9926
298,9927
297,9928
297,9929
297,9930
297,9931
297,9932
297,9933
297,9934
297,9935
297,9936
297,9937
298,9938
298,9939
298,9940
298,9942
298,9943
299,9944
299,9945
299,9946
299,9947
299,9948
300,9949
300,9950
300,9951
300,9952
300,9952
300,9953
300,9954
300,9955
301,9956
300,9957
301,9958
301,9959
301,9960
301,9961
301,9962
302,9963
303,9964
304,9965
305,9966
306,9967
308,9968
309,9969
311,9970
312,9971
313,9972
312,9973
311,9974
311,9975
309,9976
307,9977
306,9978
305,9979
304,9980
304,9981
304,9982
304,9984
305,9985
307,9986
308,9987
309,9988
311,9989
313,9990
313,9991
313,9992
313,9993
313,9994
312,9995
311,9996
310,9997
309,9998
308,9999
307,10000
306,10001
305,10002
304,10003
304,10003
303,10004
303,10005
303,10006
302,10007
302,10008
302,10009
302,10010
302,10011
302,10012
302,10013
302,10014
302,10015
302,10016
302,10017
302,10018
303,10019
303,10020
303,10021
303,10022
303,10023
304,10024
304,10025
304,10027
304,10028
304,10029
304,10030
305,10031
304,10032
305,10033
305,10034
305,10035
305,10036
306,10037
306,10038
306,10039
307,10040
308,10041
308,10042
309,10043
310,10044
310,10045
310,10046
310,10047
310,10048
310,10049
310,10050
310,10051
311,10052
311,10053
312,10054
313,10055
314,10055
315,10056
315,10057
315,10058
315,10059
314,10060
315,10061
315,10062
316,10063
317,10064
317,10065
316,10066
316,10067
315,10068
314,10070
313,10071
311,10072
310,10073
310,10074
309,10075
309,10076
308,10077
308,10078
308,10079
308,10080
307,10081
307,10082
307,10083
307,10084
307,10085
308,10086
308,10087
308,10088
308,10089
308,10090
308,10091
308,10092
308,10093
308,10094
308,10095
308,10096
308,10097
308,10098
308,10099
308,10100
308,10101
308,10102
308,10103
308,10104
309,10105
309,10106
309,10106
309,10107
309,10108
309,10109
309,10110
309,10112
309,10113
309,10114
309,10115
309,10116
310,10117
310,10118
310,10119
310,10120
310,10121
310,10122
310,10123
310,10124
310,10125
310,10126
310,10127
310,10128
311,10129
311,10130
311,10131
311,10132
312,10133
312,10134
313,10135
313,10136
314,10137
314,10138
315,10139
316,10140
317,10141
318,10142
318,10143
318,10144
318,10145
318,10146
317,10147
317,10148
316,10149
315,10150
315,10151
314,10152
314,10153
313,10155
313,10156
312,10157
312,10158
312,10158
311,10159
311,10160
311,10161
311,10162
311,10163
311,10164
311,10165
311,10166
311,10167
311,10168
311,10169
311,10170
311,10171
311,10172
311,10173
311,10174
311,10175
310,10176
310,10177
310,10178
311,10179
311,10180
311,10181
311,10182
311,10183
311,10184
311,10185
312,10186
312,10187
311,10188
312,10189
312,10190
312,10191
312,10192
312,10193
312,10194
312,10195
312,10196
312,10198
312,10199
312,10200
313,10201
313,10202
313,10203
313,10204
313,10205
313,10206
313,10207
314,10208
314,10209
314,10209
314,10210
314,10211
314,10212
314,10213
314,10214
315,10215
315,10216
315,10217
316,10218
316,10219
316,10220
316,10221
316,10222
316,10223
316,10224
316,10225
316,10226
316,10227
317,10228
317,10229
317,10230
317,10231
318,10232
318,10233
318,10234
318,10235
317,10236
318,10237
317,10238
318,10240
318,10241
318,10242
318,10243
318,10244
318,10245
318,10246
318,10247
318,10248
318,10249
317,10250
317,10251
317,10252
316,10253
316,10254
316,10255
316,10256
316,10257
316,10258
316,10259
316,10260
316,10261
316,10261
316,10262
316,10263
316,10264
316,10265
316,10266
316,10267
316,10268
316,10269
316,10270
316,10271
316,10272
316,10273
316,10274
316,10275
316,10276
316,10277
317,10278
317,10279
317,10280
317,10281
318,10283
318,10284
318,10285
318,10286
317,10287
318,10288
318,10289
318,10290
317,10291
317,10292
317,10293
317,10294
317,10295
317,10296
317,10297
317,10298
317,10299
317,10300
318,10301
318,10302
318,10303
318,10304
318,10305
318,10306
318,10307
318,10308
318,10309
318,10310
318,10311
318,10312
318,10312
318,10313
318,10314
318,10315
318,10316
318,10317
318,10318
319,10319
319,10320
319,10321
319,10322
319,10323
319,10324
319,10326
319,10327
319,10328
319,10329
320,10330
320,10331
320,10332
320,10333
320,10334
320,10335
320,10336
320,10337
320,10338
320,10339
320,10340
321,10341
321,10342
321,10343
322,10344
322,10345
322,10346
322,10347
322,10348
323,10349
323,10350
323,10351
323,10352
323,10353
323,10354
323,10355
324,10356
323,10357
323,10358
323,10359
323,10360
323,10361
323,10362
323,10363
323,10364
323,10364
323,10365
323,10366
323,10368
323,10369
323,10370
323,10371
323,10372
323,10373
323,10374
323,10375
322,10376
323,10377
322,10378
322,10379
323,10380
323,10381
323,10382
323,10383
323,10384
323,10385
323,10386
323,10387
323,10388
323,10389
323,10390
323,10391
323,10392
323,10393
323,10394
323,10395
323,10396
323,10397
323,10398
323,10399
323,10400
324,10401
324,10402
324,10403
324,10404
324,10405
325,10406
325,10407
325,10408
325,10409
325,10411
325,10412
325,10413
325,10414
325,10415
325,10416
325,10417
325,10417
325,10418
325,10419
325,10420
325,10421
325,10422
325,10423
325,10424
325,10425
326,10426
325,10427
325,10428
326,10429
325,10430
326,10431
326,10432
326,10433
326,10434
326,10435
326,10436
326,10437
326,10438
326,10439
326,10440
326,10441
327,10442
327,10443
328,10444
328,10445
328,10446
328,10447
328,10448
329,10449
329,10450
329,10451
328,10452
328,10454
328,10455
328,10456
327,10457
327,10458
327,10459
327,10460
327,10461
327,10462
327,10463
327,10464
327,10465
327,10466
328,10467
328,10468
328,10469
327,10469
327,10470
328,10471
327,10472
327,10473
327,10474
327,10475
327,10476
327,10477
327,10478
328,10479
328,10480
327,10481
328,10482
328,10483
328,10484
328,10485
328,10486
328,10487
328,10488
328,10489
328,10490
328,10491
328,10492
328,10493
328,10494
328,10496
328,10497
328,10498
328,10499
328,10500
328,10501
328,10502
328,10503
328,10504
328,10505
328,10506
328,10507
329,10508
329,10509
328,10510
329,10511
328,10512
329,10513
328,10514
328,10515
328,10516
328,10517
328,10518
329,10519
328,10520
328,10520
328,10521
328,10522
329,10523
329,10524
329,10525
328,10526
328,10527
329,10528
328,10529
328,10530
328,10531
328,10532
328,10533
328,10534
328,10535
328,10536
328,10537
328,10539
328,10540
328,10541
328,10542
328,10543
328,10544
328,10545
328,10546
328,10547
328,10548
328,10549
328,10550
328,10551
328,10552
328,10553
328,10554
328,10555
328,10556
328,10557
328,10558
328,10559
328,10560
328,10561
328,10562
328,10563
328,10564
328,10565
328,10566
328,10567
328,10568
328,10569
328,10570
328,10571
328,10572
327,10572
328,10573
327,10574
327,10575
327,10576
327,10577
327,10578
327,10579
327,10580
327,10582
327,10583
327,10584
327,10585
327,10586
327,10587
327,10588
327,10589
328,10590
327,10591
327,10592
327,10593
327,10594
327,10595
327,10596
327,10597
327,10598
327,10599
327,10600
327,10601
327,10602
327,10603
327,10604
327,10605
327,10606
327,10607
327,10608
327,10609
327,10610
327,10611
327,10612
327,10613
327,10614
326,10615
327,10616
326,10617
326,10618
326,10619
326,10620
326,10621
326,10622
326,10624
326,10625
326,10626
326,10626
326,10627
326,10628
326,10629
326,10630
326,10631
326,10632
326,10633
326,10634
326,10635
326,10636
326,10637
326,10638
326,10639
326,10640
326,10641
326,10642
326,10643
326,10644
326,10645
326,10646
326,10647
326,10648
326,10649
326,10650
326,10651
326,10652
326,10653
326,10654
326,10655
326,10656
326,10657
326,10658
326,10659
326,10660
326,10661
326,10662
326,10663
326,10664
326,10665
326,10667
326,10668
326,10669
326,10670
326,10671
326,10672
326,10673
326,10674
326,10675
326,10676
326,10677
326,10678
326,10679
326,10679
326,10680
326,10681
326,10682
326,10683
326,10684
326,10685
326,10686
326,10687
326,10688
326,10689
326,10690
326,10691
326,10692
326,10693
326,10694
326,10695
326,10696
326,10697
326,10698
326,10699
326,10700
326,10701
327,10702
327,10703
327,10704
327,10705
328,10706
328,10707
328,10708
328,10710
328,10711
328,10712
328,10713
328,10714
328,10715
328,10716
328,10717
327,10718
327,10719
327,10720
328,10721
327,10722
327,10723
327,10724
328,10725
327,10726
328,10727
328,10728
328,10729
328,10730
328,10731
328,10731
328,10732
328,10733
328,10734
327,10735
327,10736
327,10737
328,10738
328,10739
328,10740
328,10741
328,10742
328,10743
328,10744
328,10745
328,10746
328,10747
328,10748
328,10749
328,10750
328,10752
328,10753
328,10754
328,10755
328,10756
328,10757
328,10758
328,10759
328,10760
328,10761
328,10762
328,10763
328,10764
328,10765
328,10766
328,10767
328,10768
328,10769
328,10770
328,10771
328,10772
328,10773
328,10774
328,10775
328,10776
328,10777
328,10778
328,10779
329,10780
328,10781
329,10782
329,10783
329,10783
329,10784
329,10785
329,10786
329,10787
329,10788
329,10789
330,10790
329,10791
329,10792
329,10793
329,10795
329,10796
329,10797
329,10798
329,10799
329,10800
329,10801
329,10802
329,10803
329,10804
329,10805
329,10806
329,10807
329,10808
329,10809
329,10810
329,10811
329,10812
329,10813
329,10814
329,10815
329,10816
328,10817
329,10818
329,10819
329,10820
329,10821
329,10822
329,10823
329,10824
329,10825
329,10826
329,10827
329,10828
329,10829
329,10830
329,10831
329,10832
329,10833
329,10834
329,10835
329,10836
329,10836
329,10838
329,10839
329,10840
329,10841
330,10842
329,10843
330,10844
330,10845
329,10846
330,10847
330,10848
330,10849
330,10850
330,10851
330,10852
330,10853
330,10854
330,10855
330,10856
330,10857
330,10858
330,10859
330,10860
330,10861
330,10862
330,10863
330,10864
330,10865
331,10866
331,10867
331,10868
331,10869
330,10870
331,10871
330,10872
330,10873
330,10874
330,10875
330,10876
330,10877
330,10878
330,10880
330,10881
330,10882
331,10883
331,10884
331,10885
331,10886
331,10887
331,10888
331,10889
331,10889
331,10890
331,10891
331,10892
331,10893
331,10894
331,10895
330,10896
330,10897
330,10898
330,10899
330,10900
330,10901
330,10902
330,10903
330,10904
331,10905
330,10906
330,10907
331,10908
331,10909
331,10910
331,10911
331,10912
331,10913
331,10914
330,10915
330,10916
330,10917
331,10918
330,10919
331,10920
330,10921
331,10923
331,10924
331,10925
331,10926
331,10927
331,10928
331,10929
331,10930
330,10931
330,10932
330,10933
330,10934
330,10935
330,10936
330,10937
330,10938
330,10939
330,10940
330,10941
330,10941
330,10942
330,10943
330,10944
330,10945
330,10946
330,10947
330,10948
330,10949
331,10950
330,10951
331,10952
330,10953
331,10954
330,10955
330,10956
330,10957
330,10958
330,10959
330,10960
330,10961
330,10962
330,10963
330,10964
330,10966
330,10967
330,10968
330,10969
330,10970
330,10971
331,10972
331,10973
331,10974
331,10975
330,10976
330,10977
331,10978
330,10979
330,10980
330,10981
330,10982
330,10983
331,10984
331,10985
331,10986
331,10987
331,10988
331,10989
331,10990
331,10991
331,10992
331,10993
331,10993
331,10994
330,10995
331,10996
331,10997
331,10998
330,10999
331,11000
331,11001
331,11002
331,11003
331,11004
331,11005
331,11006
331,11008
331,11009
331,11010
331,11011
331,11012
331,11013
331,11014
330,11015
330,11016
330,11017
330,11018
330,11019
330,11020
330,11021
330,11022
330,11023
330,11024
330,11025
330,11026
330,11027
330,11028
330,11029
331,11030
330,11031
331,11032
330,11033
330,11034
330,11035
330,11036
330,11037
330,11038
330,11039
330,11040
330,11041
330,11042
330,11043
330,11044
329,11044
330,11045
330,11046
330,11047
330,11048
330,11049
330,11051
330,11052
330,11053
330,11054
330,11055
330,11056
330,11057
329,11058
329,11059
329,11060
329,11061
329,11062
329,11063
329,11064
328,11065
329,11066
328,11067
328,11068
328,11069
328,11070
328,11071
328,11072
328,11073
328,11074
328,11075
327,11076
327,11077
327,11078
327,11079
327,11080
327,11081
327,11082
327,11083
327,11084
327,11085
327,11086
327,11087
327,11088
327,11089
327,11090
326,11091
326,11092
326,11094
326,11095
326,11096
326,11097
326,11097
325,11098
325,11099
325,11100
325,11101
325,11102
325,11103
325,11104
325,11105
325,11106
325,11107
325,11108
325,11109
325,11110
325,11111
325,11112
325,11113
325,11114
324,11115
324,11116
324,11117
324,11118
324,11119
324,11120
324,11121
324,11122
324,11123
324,11124
324,11125
324,11126
324,11127
324,11128
324,11129
324,11130
324,11131
323,11132
323,11133
323,11134
323,11136
323,11137
323,11138
323,11139
323,11140
323,11141
323,11142
323,11143
323,11144
323,11145
323,11146
323,11147
323,11148
323,11148
323,11149
323,11150
322,11151
322,11152
322,11153
322,11154
322,11155
322,11156
321,11157
321,11158
321,11159
321,11160
321,11161
321,11162
321,11163
321,11164
321,11165
321,11166
321,11167
321,11168
321,11169
321,11170
321,11171
320,11172
320,11173
320,11174
320,11175
320,11176
320,11177
320,11179
320,11180
320,11181
320,11182
320,11183
320,11184
320,11185
320,11186
320,11187
320,11188
320,11189
320,11190
319,11191
319,11192
320,11193
320,11194
319,11195
319,11196
319,11197
319,11198
319,11199
319,11200
319,11200
319,11201
319,11202
319,11203
319,11204
319,11205
319,11206
319,11207
319,11208
319,11209
319,11210
319,11211
319,11212
319,11213
319,11214
319,11215
319,11216
318,11217
318,11218
318,11219
318,11220
318,11222
318,11223
318,11224
318,11225
319,11226
319,11227
319,11228
319,11229
319,11230
318,11231
318,11232
318,11233
318,11234
318,11235
318,11236
318,11237
318,11238
318,11239
318,11240
318,11241
318,11242
318,11243
318,11244
318,11245
318,11246
318,11247
318,11248
318,11249
318,11250
318,11251
318,11251
318,11252
318,11253
318,11254
317,11255
317,11256
317,11257
317,11258
317,11259
317,11260
317,11261
317,11262
317,11264
317,11265
317,11266
317,11267
317,11268
317,11269
317,11270
317,11271
317,11272
317,11273
317,11274
317,11275
316,11276
316,11277
316,11278
316,11279
316,11280
316,11281
316,11282
316,11283
317,11284
316,11285
316,11286
316,11287
316,11288
316,11289
316,11290
317,11291
316,11292
316,11293
316,11294
316,11295
316,11296
316,11297
316,11298
316,11299
315,11300
316,11301
315,11302
316,11302
316,11303
316,11304
316,11305
316,11307
316,11308
316,11309
316,11310
316,11311
316,11312
316,11313
316,11314
315,11315
316,11316
315,11317
316,11318
316,11319
315,11320
315,11321
315,11322
315,11323
316,11324
315,11325
315,11326
316,11327
316,11328
316,11329
316,11330
316,11331
316,11332
316,11333
316,11334
316,11335
316,11336
316,11337
316,11338
316,11339
316,11340
316,11341
316,11342
316,11343
316,11344
316,11345
316,11346
316,11347
316,11348
316,11350
316,11351
317,11352
316,11353
316,11354
316,11355
316,11355
316,11356
316,11357
316,11358
316,11359
316,11360
315,11361
315,11362
316,11363
316,11364
316,11365
316,11366
316,11367
316,11368
316,11369
316,11370
316,11371
316,11372
316,11373
316,11374
316,11375
316,11376
316,11377
316,11378
315,11379
316,11380
316,11381
315,11382
315,11383
316,11384
316,11385
316,11386
316,11387
316,11388
316,11389
316,11390
316,11392
316,11393
316,11394
316,11395
315,11396
315,11397
316,11398
315,11399
315,11400
315,11401
315,11402
315,11403
315,11404
315,11405
315,11406
315,11406
315,11407
315,11408
316,11409
316,11410
316,11411
316,11412
315,11413
315,11414
315,11415
315,11416
315,11417
315,11418
315,11419
315,11420
315,11421
315,11422
315,11423
315,11424
315,11425
315,11426
315,11427
315,11428
316,11429
315,11430
316,11431
316,11432
316,11433
316,11435
315,11436
315,11437
315,11438
315,11439
315,11440
315,11441
315,11442
315,11443
315,11444
315,11445
315,11446
315,11447
316,11448
316,11449
315,11450
316,11451
315,11452
315,11453
315,11454
315,11455
315,11456
315,11457
315,11457
315,11458
315,11459
315,11460
315,11461
315,11462
315,11463
315,11464
316,11465
316,11466
316,11467
316,11468
316,11469
316,11470
316,11471
316,11472
316,11473
316,11474
316,11475
316,11476
316,11478
316,11479
316,11480
316,11481
315,11482
316,11483
315,11484
316,11485
316,11486
316,11487
316,11488
316,11489
316,11490
316,11491
316,11492
316,11493
316,11494
315,11495
315,11496
315,11497
315,11498
315,11499
315,11500
315,11501
315,11502
315,11503
315,11504
315,11505
315,11506
315,11507
315,11508
315,11508
315,11509
315,11510
315,11511
315,11512
315,11513
315,11514
315,11515
315,11516
315,11517
315,11518
315,11520
315,11521
315,11522
315,11523
315,11524
315,11525
315,11526
315,11527
315,11528
315,11529
316,11530
316,11531
316,11532
315,11533
315,11534
316,11535
315,11536
315,11537
315,11538
315,11539
315,11540
315,11541
315,11542
315,11543
315,11544
315,11545
316,11546
316,11547
316,11548
316,11549
316,11550
316,11551
316,11552
316,11553
316,11554
316,11555
316,11556
316,11557
316,11558
316,11559
315,11560
315,11560
315,11561
315,11563
315,11564
316,11565
316,11566
316,11567
316,11568
316,11569
316,11570
316,11571
316,11572
316,11573
316,11574
316,11575
316,11576
315,11577
315,11578
315,11579
315,11580
315,11581
315,11582
315,11583
315,11584
315,11585
316,11586
316,11587
316,11588
316,11589
316,11590
316,11591
316,11592
316,11593
316,11594
316,11595
316,11596
315,11597
315,11598
315,11599
315,11600
315,11601
315,11602
316,11603
316,11604
316,11606
316,11607
316,11608
316,11609
316,11610
316,11611
316,11612
316,11612
316,11613
316,11614
315,11615
316,11616
315,11617
315,11618
315,11619
315,11620
315,11621
315,11622
315,11623
315,11624
315,11625
316,11626
316,11627
316,11628
316,11629
316,11630
316,11631
316,11632
316,11633
316,11634
316,11635
316,11636
315,11637
315,11638
315,11639
315,11640
315,11641
315,11642
315,11643
315,11644
315,11645
316,11646
316,11648
316,11649
316,11650
316,11651
316,11652
316,11653
316,11654
316,11655
316,11656
316,11657
315,11658
315,11659
315,11660
315,11661
315,11662
315,11663
315,11664
315,11664
316,11665
316,11666
316,11667
316,11668
316,11669
316,11670
316,11671
316,11672
316,11673
316,11674
316,11675
316,11676
315,11677
315,11678
315,11679
315,11680
315,11681
315,11682
315,11683
315,11684
315,11685
315,11686
316,11687
316,11688
316,11689
316,11691
316,11692
316,11693
316,11694
316,11695
316,11696
315,11697
315,11698
315,11699
315,11700
315,11701
315,11702
315,11703
315,11704
315,11705
315,11706
316,11707
316,11708
316,11709
316,11710
316,11711
317,11712
317,11713
316,11714
316,11715
316,11715
316,11716
316,11717
316,11718
315,11719
315,11720
315,11721
315,11722
315,11723
316,11724
316,11725
316,11726
316,11727
316,11728
316,11729
317,11730
317,11731
317,11732
316,11734
316,11735
316,11736
316,11737
316,11738
315,11739
315,11740
315,11741
315,11742
316,11743
316,11744
316,11745
316,11746
316,11747
316,11748
316,11749
317,11750
317,11751
317,11752
317,11753
317,11754
317,11755
316,11756
316,11757
316,11758
316,11759
316,11760
315,11761
316,11762
315,11763
316,11764
316,11765
316,11766
316,11766
316,11767
317,11768
317,11769
317,11770
317,11771
317,11772
317,11773
316,11774
316,11776
316,11777
316,11778
316,11779
316,11780
316,11781
316,11782
316,11783
316,11784
316,11785
317,11786
316,11787
317,11788
317,11789
317,11790
317,11791
317,11792
317,11793
317,11794
317,11795
317,11796
316,11797
316,11798
316,11799
316,11800
316,11801
316,11802
316,11803
316,11804
316,11805
316,11806
316,11807
317,11808
317,11809
317,11810
317,11811
317,11812
317,11813
317,11814
317,11815
317,11816
317,11817
316,11819
316,11819
316,11820
316,11821
316,11822
316,11823
316,11824
317,11825
317,11826
317,11827
317,11828
317,11829
317,11830
317,11831
317,11832
317,11833
317,11834
317,11835
317,11836
317,11837
316,11838
316,11839
316,11840
316,11841
316,11842
316,11843
316,11844
316,11845
316,11846
317,11847
316,11848
317,11849
317,11850
317,11851
317,11852
317,11853
316,11854
316,11855
316,11856
316,11857
316,11858
316,11859
316,11860
316,11862
315,11863
315,11864
315,11865
316,11866
316,11867
316,11868
316,11869
316,11870
316,11870
316,11871
316,11872
317,11873
316,11874
316,11875
316,11876
316,11877
316,11878
316,11879
315,11880
315,11881
315,11882
315,11883
315,11884
315,11885
316,11886
316,11887
316,11888
316,11889
316,11890
316,11891
316,11892
316,11893
316,11894
316,11895
316,11896
316,11897
315,11898
315,11899
315,11900
315,11901
315,11902
315,11904
315,11905
315,11906
315,11907
316,11908
316,11909
316,11910
316,11911
316,11912
316,11913
316,11914
316,11915
316,11916
316,11917
316,11918
316,11919
316,11920
316,11921
315,11921
315,11922
315,11923
315,11924
315,11925
315,11926
316,11927
316,11928
316,11929
316,11930
316,11931
316,11932
316,11933
316,11934
315,11935
315,11936
315,11937
315,11938
315,11939
315,11940
314,11941
315,11942
314,11943
315,11944
315,11945
315,11947
315,11948
315,11949
316,11950
316,11951
316,11952
316,11953
316,11954
316,11955
315,11956
315,11957
315,11958
315,11959
315,11960
314,11961
314,11962
314,11963
314,11964
314,11965
314,11966
314,11967
314,11968
315,11969
315,11970
315,11971
315,11972
315,11972
315,11973
315,11974
315,11975
315,11976
314,11977
314,11978
314,11979
314,11980
314,11981
314,11982
314,11983
314,11984
314,11985
314,11986
314,11987
315,11988
315,11990
315,11991
315,11992
315,11993
315,11994
315,11995
315,11996
314,11997
314,11998
314,11999
314,12000
314,12001
314,12002
314,12003
314,12004
314,12005
314,12006
314,12007
314,12008
315,12009
315,12010
315,12011
315,12012
315,12013
315,12014
315,12015
315,12016
315,12017
314,12018
314,12019
314,12020
314,12021
314,12022
314,12023
314,12024
314,12024
315,12025
315,12026
315,12027
315,12028
316,12029
316,12030
316,12032
316,12033
316,12034
315,12035
315,12036
315,12037
315,12038
314,12039
314,12040
314,12041
314,12042
314,12043
314,12044
314,12045
315,12046
315,12047
315,12048
315,12049
315,12050
315,12051
315,12052
315,12053
315,12054
315,12055
315,12056
315,12057
315,12058
314,12059
314,12060
314,12061
314,12062
314,12063
314,12064
314,12065
314,12066
315,12067
315,12068
315,12069
315,12070
315,12071
315,12072
315,12073
315,12075
315,12076
315,12076
315,12077
314,12078
314,12079
314,12080
314,12081
314,12082
314,12083
314,12084
314,12085
315,12086
315,12087
315,12088
315,12089
315,12090
315,12091
315,12092
315,12093
315,12094
315,12095
315,12096
314,12097
314,12098
314,12099
314,12100
314,12101
314,12102
314,12103
314,12104
314,12105
314,12106
314,12107
315,12108
315,12109
315,12110
315,12111
315,12112
315,12113
314,12114
314,12115
314,12116
314,12118
314,12119
314,12120
313,12121
313,12122
313,12123
313,12124
313,12125
313,12126
313,12127
314,12127
314,12128
314,12129
314,12130
314,12131
314,12132
314,12133
314,12134
314,12135
314,12136
313,12137
314,12138
313,12139
313,12140
313,12141
313,12142
313,12143
313,12144
313,12145
313,12146
314,12147
314,12148
314,12149
314,12150
314,12151
314,12152
314,12153
314,12154
314,12155
313,12156
313,12157
313,12158
313,12160
313,12161
312,12162
312,12163
312,12164
312,12165
312,12166
313,12167
313,12168
313,12169
313,12170
313,12171
313,12172
313,12173
313,12174
313,12175
313,12176
313,12177
313,12178
312,12179
312,12179
312,12180
312,12181
312,12182
312,12183
312,12184
312,12185
313,12186
313,12187
313,12188
313,12189
313,12190
313,12191
313,12192
313,12193
313,12194
313,12195
313,12196
312,12197
312,12198
312,12199
312,12200
311,12201
312,12203
312,12204
312,12205
312,12206
312,12207
312,12208
312,12209
313,12210
313,12211
313,12212
313,12213
313,12214
313,12215
312,12216
312,12217
312,12218
312,12219
312,12220
312,12221
311,12222
311,12223
311,12224
311,12225
312,12226
312,12227
312,12228
312,12229
312,12230
312,12230
312,12231
312,12232
312,12233
312,12234
312,12235
312,12236
312,12237
311,12238
311,12239
311,12240
311,12241
311,12242
311,12243
311,12244
311,12246
312,12247
312,12248
312,12249
312,12250
312,12251
312,12252
312,12253
312,12254
312,12255
312,12256
312,12257
312,12258
312,12259
311,12260
311,12261
311,12262
311,12263
311,12264
311,12265
311,12266
312,12267
312,12268
312,12269
312,12270
312,12271
313,12272
313,12273
313,12274
312,12275
312,12276
312,12277
312,12278
312,12279
312,12280
311,12281
311,12281
311,12282
311,12283
312,12284
312,12285
312,12286
312,12288
312,12289
313,12290
313,12291
313,12292
313,12293
313,12294
313,12295
313,12296
313,12297
313,12298
313,12299
312,12300
312,12301
312,12302
312,12303
312,12304
312,12305
313,12306
313,12307
313,12308
313,12309
313,12310
313,12311
314,12312
314,12313
314,12314
314,12315
313,12316
314,12317
313,12318
313,12319
313,12320
313,12321
313,12322
313,12323
313,12324
313,12325
313,12326
313,12327
314,12328
314,12329
314,12331
314,12332
314,12333
314,12334
314,12334
314,12335
314,12336
314,12337
313,12338
313,12339
313,12340
313,12341
313,12342
313,12343
313,12344
313,12345
313,12346
314,12347
314,12348
314,12349
314,12350
314,12351
314,12352
314,12353
314,12354
314,12355
314,12356
314,12357
314,12358
313,12359
313,12360
313,12361
313,12362
313,12363
313,12364
314,12365
314,12366
314,12367
314,12368
314,12369
314,12370
314,12371
315,12372
315,12374
315,12375
315,12376
315,12377
314,12378
314,12379
314,12380
314,12381
314,12382
313,12383
314,12384
314,12385
314,12385
314,12386
314,12387
314,12388
315,12389
315,12390
315,12391
315,12392
315,12393
315,12394
315,12395
315,12396
315,12397
314,12398
314,12399
314,12400
313,12401
314,12402
314,12403
313,12404
314,12405
314,12406
314,12407
314,12408
315,12409
315,12410
315,12411
315,12412
315,12413
315,12414
315,12416
315,12417
315,12418
315,12419
