
311,481
311,482
311,483
312,484
312,485
312,486
312,487
312,488
312,489
312,490
312,491
312,491
313,492
313,493
313,494
313,495
313,496
313,497
313,498
313,499
313,500
313,501
313,502
313,503
313,504
313,505
313,506
313,507
314,508
314,509
314,510
314,512
314,513
314,514
314,515
314,516
314,517
314,518
314,519
314,520
314,521
314,522
314,523
313,524
313,525
313,526
314,527
314,528
314,529
314,530
315,531
315,532
315,533
315,534
315,535
315,536
315,537
314,538
315,539
315,540
314,541
315,542
315,543
315,543
314,544
314,545
314,546
315,547
315,548
315,549
315,550
315,551
316,552
316,553
316,555
315,556
315,557
316,558
315,559
315,560
315,561
315,562
315,563
315,564
315,565
315,566
315,567
315,568
316,569
315,570
316,571
316,572
316,573
316,574
316,575
316,576
316,577
315,578
315,579
315,580
315,581
315,582
315,583
315,584
315,585
315,586
315,587
315,588
315,589
315,590
315,591
315,592
315,593
315,594
315,594
315,595
315,596
315,598
315,599
315,600
315,601
314,602
314,603
314,604
314,605
314,606
314,607
314,608
314,609
314,610
314,611
314,612
314,613
315,614
314,615
315,616
314,617
314,618
314,619
314,620
314,621
314,622
314,623
314,624
313,625
313,626
313,627
313,628
314,629
314,630
314,631
314,632
313,633
314,634
314,635
314,636
313,637
313,638
313,640
313,641
313,642
313,643
313,644
313,645
312,646
312,647
312,648
312,648
312,649
312,650
312,651
313,652
313,653
313,654
313,655
313,656
313,657
313,658
313,659
312,660
312,661
312,662
312,663
312,664
312,665
312,666
312,667
312,668
312,669
312,670
312,671
312,672
312,673
312,674
312,675
312,676
312,677
312,678
312,679
312,680
311,681
311,683
311,684
311,685
311,686
311,687
311,688
311,689
311,690
311,691
312,692
311,693
312,694
312,695
311,696
311,697
311,698
311,699
311,700
311,700
311,701
310,702
310,703
310,704
310,705
310,706
311,707
311,708
311,709
311,710
311,711
311,712
311,713
311,714
311,715
311,716
311,717
311,718
311,719
311,720
310,721
310,722
310,723
310,724
310,726
310,727
310,728
310,729
310,730
310,731
310,732
311,733
310,734
311,735
310,736
310,737
310,738
310,739
310,740
310,741
310,742
309,743
309,744
309,745
309,746
309,747
309,748
310,749
310,750
310,751
310,752
310,752
310,753
310,754
310,755
310,756
310,757
309,758
310,759
309,760
309,761
309,762
309,763
309,764
309,765
309,766
309,768
309,769
309,770
309,771
310,772
310,773
310,774
310,775
310,776
310,777
310,778
310,779
310,780
310,781
309,782
309,783
309,784
309,785
309,786
309,787
309,788
309,789
309,790
309,791
309,792
310,793
310,794
310,795
309,796
309,797
309,798
309,799
309,800
309,801
309,802
309,803
309,804
308,804
309,805
309,806
308,807
309,808
309,809
309,811
309,812
309,813
309,814
309,815
309,816
309,817
309,818
309,819
309,820
309,821
308,822
308,823
308,824
308,825
308,826
308,827
308,828
309,829
309,830
309,831
309,832
309,833
309,834
309,835
309,836
309,837
309,838
309,839
309,840
309,841
309,842
309,843
309,844
309,845
309,846
309,847
309,848
309,849
309,850
309,851
310,852
310,854
310,855
310,856
310,857
310,858
310,859
310,859
310,860
309,861
309,862
309,863
309,864
309,865
309,866
309,867
309,868
309,869
309,870
309,871
309,872
310,873
310,874
310,875
310,876
310,877
310,878
310,879
310,880
310,881
309,882
309,883
309,884
309,885
309,886
309,887
310,888
309,889
310,890
310,891
310,892
310,893
310,894
310,896
310,897
310,898
310,899
310,900
310,901
310,902
310,903
310,904
310,905
310,906
310,907
310,908
310,909
310,910
310,911
311,911
311,912
311,913
311,914
311,915
311,916
310,917
311,918
310,919
310,920
310,921
310,922
310,923
310,924
310,925
310,926
310,927
310,928
310,929
310,930
311,931
311,932
311,933
311,934
311,935
311,936
311,937
311,939
311,940
311,941
311,942
311,943
311,944
311,945
311,946
310,947
311,948
311,949
311,950
311,951
311,952
311,953
311,954
311,955
312,956
312,957
312,958
311,959
312,960
311,961
312,962
312,962
311,963
311,964
312,965
311,966
312,967
312,968
312,969
312,970
312,971
312,972
312,973
313,974
313,975
313,976
312,977
312,978
312,979
312,980
312,982
312,983
312,984
312,985
312,986
312,987
312,988
312,989
312,990
312,991
312,992
313,993
313,994
313,995
313,996
312,997
313,998
312,999
312,1000
312,1001
312,1002
312,1003
312,1004
312,1005
312,1006
312,1007
312,1008
312,1009
312,1010
312,1011
312,1012
312,1013
313,1014
313,1014
313,1015
312,1016
312,1017
312,1018
312,1019
312,1020
312,1021
312,1022
312,1024
312,1025
312,1026
312,1027
312,1028
312,1029
312,1030
313,1031
313,1032
312,1033
312,1034
312,1035
312,1036
312,1037
312,1038
312,1039
312,1040
312,1041
312,1042
312,1043
312,1044
312,1045
313,1046
313,1047
313,1048
313,1049
313,1050
313,1051
313,1052
313,1053
313,1054
313,1055
313,1056
313,1057
313,1058
313,1059
313,1060
313,1061
313,1062
313,1063
313,1064
313,1065
313,1065
313,1067
313,1068
313,1069
313,1070
313,1071
313,1072
313,1073
313,1074
313,1075
313,1076
313,1077
313,1078
313,1079
313,1080
313,1081
313,1082
313,1083
313,1084
313,1085
313,1086
313,1087
313,1088
313,1089
313,1090
313,1091
313,1092
314,1093
314,1094
314,1095
313,1096
314,1097
314,1098
314,1099
313,1100
313,1101
313,1102
313,1103
313,1104
313,1105
313,1106
313,1107
313,1108
313,1110
313,1111
314,1112
314,1113
314,1114
314,1115
314,1116
314,1117
314,1118
313,1118
313,1119
314,1120
313,1121
313,1122
314,1123
313,1124
313,1125
313,1126
314,1127
314,1128
314,1129
314,1130
314,1131
314,1132
315,1133
315,1134
315,1135
315,1136
315,1137
315,1138
314,1139
314,1140
314,1141
314,1142
314,1143
314,1144
314,1145
314,1146
314,1147
314,1148
314,1149
314,1150
314,1152
314,1153
314,1154
314,1155
314,1156
314,1157
314,1158
314,1159
314,1160
314,1161
314,1162
314,1163
314,1164
313,1165
313,1166
313,1167
314,1168
314,1169
314,1169
314,1170
314,1171
314,1172
314,1173
314,1174
314,1175
314,1176
314,1177
314,1178
314,1179
314,1180
314,1181
314,1182
314,1183
314,1184
314,1185
314,1186
314,1187
314,1188
314,1189
314,1190
314,1191
314,1192
314,1193
314,1195
314,1196
314,1197
314,1198
314,1199
314,1200
314,1201
313,1202
313,1203
313,1204
313,1205
313,1206
313,1207
313,1208
314,1209
314,1210
314,1211
314,1212
314,1213
315,1214
315,1215
315,1216
315,1217
314,1218
314,1219
314,1220
314,1221
314,1221
314,1222
314,1223
314,1224
314,1225
314,1226
314,1227
314,1228
314,1229
314,1230
315,1231
315,1232
315,1233
315,1234
315,1235
315,1236
315,1238
315,1239
315,1240
315,1241
315,1242
315,1243
315,1244
315,1245
315,1246
315,1247
315,1248
315,1249
315,1250
315,1251
315,1252
315,1253
315,1254
315,1255
315,1256
315,1257
315,1258
315,1259
315,1260
315,1261
315,1262
315,1263
315,1264
315,1265
315,1266
315,1267
315,1268
315,1269
315,1270
315,1271
315,1272
315,1272
315,1273
315,1274
315,1275
315,1276
315,1277
315,1278
315,1280
315,1281
315,1282
315,1283
315,1284
315,1285
315,1286
315,1287
315,1288
315,1289
315,1290
315,1291
315,1292
315,1293
315,1294
315,1295
315,1296
315,1297
315,1298
315,1299
315,1300
315,1301
315,1302
315,1303
315,1304
315,1305
315,1306
315,1307
315,1308
315,1309
315,1310
315,1311
315,1312
315,1313
315,1314
315,1315
315,1316
315,1317
315,1318
315,1319
315,1320
314,1321
314,1323
315,1324
314,1325
314,1325
314,1326
314,1327
314,1328
314,1329
315,1330
315,1331
315,1332
315,1333
314,1334
314,1335
314,1336
314,1337
314,1338
314,1339
314,1340
314,1341
313,1342
313,1343
313,1344
313,1345
313,1346
313,1347
313,1348
313,1349
313,1350
314,1351
313,1352
314,1353
314,1354
314,1355
314,1356
314,1357
314,1358
314,1359
314,1360
314,1361
313,1362
314,1363
314,1364
314,1366
314,1367
313,1368
313,1369
313,1370
314,1371
313,1372
313,1373
313,1374
313,1375
313,1376
313,1376
314,1377
314,1378
314,1379
314,1380
314,1381
314,1382
314,1383
314,1384
314,1385
314,1386
314,1387
314,1388
315,1389
315,1390
314,1391
314,1392
314,1393
314,1394
314,1395
314,1396
314,1397
314,1398
314,1399
314,1400
314,1401
314,1402
314,1403
314,1404
314,1405
314,1406
314,1408
314,1409
314,1410
314,1411
314,1412
314,1413
314,1414
314,1415
314,1416
314,1417
314,1418
314,1419
314,1420
314,1421
314,1422
313,1423
313,1424
313,1425
313,1426
313,1427
314,1427
314,1428
314,1429
313,1430
314,1431
314,1432
314,1433
314,1434
314,1435
314,1436
314,1437
314,1438
314,1439
313,1440
314,1441
314,1442
313,1443
313,1444
314,1445
314,1446
314,1447
314,1448
314,1449
314,1451
314,1452
314,1453
314,1454
314,1455
314,1456
314,1457
314,1458
314,1459
314,1460
314,1461
314,1462
314,1463
314,1464
314,1465
313,1466
314,1467
314,1468
314,1469
314,1470
314,1471
314,1472
314,1473
314,1474
314,1475
314,1476
314,1477
314,1478
314,1479
314,1479
314,1480
314,1481
314,1482
314,1483
314,1484
314,1485
314,1486
314,1487
314,1488
314,1489
314,1490
314,1491
314,1492
314,1494
314,1495
314,1496
314,1497
314,1498
314,1499
314,1500
314,1501
314,1502
313,1503
314,1504
313,1505
314,1506
314,1507
314,1508
314,1509
314,1510
314,1511
315,1512
315,1513
315,1514
315,1515
315,1516
315,1517
315,1518
315,1519
315,1520
315,1521
314,1522
314,1523
314,1524
314,1525
314,1526
314,1527
314,1528
314,1529
315,1530
315,1530
315,1531
315,1532
315,1533
315,1534
315,1536
315,1537
315,1538
315,1539
314,1540
315,1541
314,1542
314,1543
314,1544
314,1545
314,1546
314,1547
314,1548
314,1549
314,1550
314,1551
314,1552
315,1553
314,1554
315,1555
315,1556
315,1557
315,1558
314,1559
315,1560
315,1561
315,1562
314,1563
314,1564
315,1565
314,1566
314,1567
314,1568
314,1569
314,1570
314,1571
314,1572
314,1573
314,1574
314,1575
314,1576
314,1577
314,1579
314,1580
314,1581
314,1582
314,1582
314,1583
314,1584
314,1585
314,1586
314,1587
314,1588
314,1589
314,1590
314,1591
314,1592
315,1593
314,1594
315,1595
315,1596
315,1597
314,1598
314,1599
314,1600
314,1601
314,1602
314,1603
315,1604
315,1605
314,1606
315,1607
315,1608
315,1609
315,1610
315,1611
315,1612
315,1613
315,1614
315,1615
315,1616
315,1617
315,1618
315,1619
315,1620
315,1622
315,1623
315,1624
315,1625
314,1626
314,1627
314,1628
315,1629
315,1630
315,1631
315,1632
315,1633
315,1634
315,1634
315,1635
315,1636
315,1637
314,1638
314,1639
314,1640
314,1641
314,1642
314,1643
314,1644
314,1645
314,1646
314,1647
314,1648
314,1649
314,1650
314,1651
314,1652
314,1653
314,1654
314,1655
314,1656
314,1657
314,1658
314,1659
314,1660
314,1661
314,1662
314,1664
313,1665
313,1666
313,1667
313,1668
313,1669
313,1670
313,1671
313,1672
313,1673
313,1674
313,1675
313,1676
313,1677
314,1678
314,1679
314,1680
314,1681
314,1682
314,1683
314,1684
314,1685
314,1685
314,1686
314,1687
314,1688
314,1689
314,1690
314,1691
314,1692
314,1693
314,1694
314,1695
314,1696
314,1697
314,1698
314,1699
314,1700
313,1701
313,1702
313,1703
313,1704
313,1705
313,1707
313,1708
313,1709
314,1710
314,1711
314,1712
314,1713
314,1714
314,1715
314,1716
314,1717
314,1718
314,1719
314,1720
314,1721
314,1722
314,1723
314,1724
314,1725
314,1726
314,1727
314,1728
314,1729
314,1730
314,1731
314,1732
314,1733
314,1734
314,1735
314,1736
314,1736
314,1737
314,1738
314,1739
314,1740
314,1741
314,1742
314,1743
314,1744
314,1745
314,1746
314,1747
314,1748
314,1750
314,1751
314,1752
314,1753
314,1754
314,1755
313,1756
314,1757
313,1758
313,1759
313,1760
313,1761
313,1762
313,1763
313,1764
313,1765
313,1766
313,1767
313,1768
313,1769
313,1770
313,1771
313,1772
313,1773
313,1774
313,1775
313,1776
313,1777
313,1778
313,1779
313,1780
313,1781
313,1782
313,1783
313,1784
313,1785
313,1786
313,1787
313,1788
313,1788
313,1789
313,1790
314,1792
314,1793
314,1794
314,1795
313,1796
313,1797
313,1798
313,1799
313,1800
313,1801
313,1802
313,1803
313,1804
313,1805
313,1806
313,1807
313,1808
313,1809
313,1810
313,1811
313,1812
313,1813
314,1814
314,1815
314,1816
314,1817
314,1818
314,1819
314,1820
314,1821
314,1822
314,1823
314,1824
314,1825
314,1826
314,1827
314,1828
313,1829
314,1830
314,1831
314,1832
314,1833
314,1835
313,1836
313,1837
314,1838
313,1839
314,1840
313,1840
313,1841
313,1842
313,1843
313,1844
313,1845
313,1846
313,1847
313,1848
313,1849
313,1850
313,1851
313,1852
313,1853
313,1854
313,1855
313,1856
313,1857
313,1858
313,1859
313,1860
313,1861
313,1862
313,1863
313,1864
313,1865
313,1866
313,1867
313,1868
313,1869
313,1870
313,1871
313,1872
313,1873
313,1874
313,1875
314,1876
314,1878
313,1879
313,1880
313,1881
313,1882
313,1883
313,1884
313,1885
313,1886
313,1887
313,1888
313,1889
313,1890
314,1891
314,1892
314,1892
313,1893
314,1894
314,1895
314,1896
314,1897
313,1898
314,1899
313,1900
313,1901
314,1902
313,1903
313,1904
313,1905
314,1906
313,1907
313,1908
314,1909
314,1910
314,1911
314,1912
313,1913
313,1914
313,1915
313,1916
313,1917
312,1918
313,1920
313,1921
313,1922
313,1923
314,1924
314,1925
314,1926
314,1927
314,1928
314,1929
314,1930
314,1931
315,1932
314,1933
315,1934
314,1935
314,1936
314,1937
314,1938
314,1939
314,1940
314,1941
314,1942
314,1943
314,1943
314,1944
314,1945
314,1946
314,1947
314,1948
314,1949
314,1950
314,1951
314,1952
314,1953
314,1954
314,1955
314,1956
315,1957
314,1958
315,1959
315,1960
315,1961
315,1963
315,1964
315,1965
315,1966
315,1967
315,1968
315,1969
315,1970
315,1971
315,1972
315,1973
315,1974
315,1975
315,1976
315,1977
315,1978
315,1979
314,1980
314,1981
314,1982
314,1983
314,1984
314,1985
314,1986
314,1987
314,1988
314,1989
314,1990
314,1991
314,1992
314,1993
314,1994
314,1995
314,1995
314,1996
313,1997
313,1998
313,1999
313,2000
313,2001
313,2002
313,2003
313,2004
314,2006
313,2007
314,2008
313,2009
314,2010
314,2011
314,2012
314,2013
314,2014
314,2015
314,2016
314,2017
314,2018
314,2019
314,2020
313,2021
313,2022
313,2023
313,2024
313,2025
313,2026
312,2027
312,2028
312,2029
312,2030
312,2031
312,2032
312,2033
312,2034
313,2035
313,2036
314,2037
314,2038
314,2039
314,2040
314,2041
314,2042
314,2043
314,2044
314,2045
314,2046
313,2046
313,2048
313,2049
313,2050
313,2051
313,2052
313,2053
313,2054
314,2055
313,2056
314,2057
314,2058
313,2059
313,2060
313,2061
313,2062
313,2063
313,2064
313,2065
313,2066
313,2067
313,2068
313,2069
313,2070
313,2071
313,2072
313,2073
313,2074
313,2075
313,2076
312,2077
312,2078
313,2079
312,2080
312,2081
312,2082
312,2083
312,2084
312,2085
312,2086
312,2087
312,2088
312,2089
312,2091
313,2092
313,2093
313,2094
314,2095
314,2096
314,2097
314,2098
314,2098
314,2099
314,2100
314,2101
314,2102
314,2103
313,2104
313,2105
313,2106
313,2107
312,2108
312,2109
312,2110
312,2111
312,2112
312,2113
312,2114
312,2115
313,2116
313,2117
313,2118
313,2119
313,2120
313,2121
313,2122
313,2123
313,2124
313,2125
312,2126
312,2127
313,2128
312,2129
312,2130
312,2131
312,2132
312,2134
313,2135
313,2136
313,2137
313,2138
313,2139
312,2140
312,2141
312,2142
312,2143
312,2144
312,2145
312,2146
312,2147
312,2148
312,2149
312,2150
312,2150
312,2151
312,2152
312,2153
312,2154
312,2155
312,2156
312,2157
312,2158
312,2159
312,2160
312,2161
312,2162
312,2163
312,2164
312,2165
312,2166
312,2167
312,2168
313,2169
313,2170
313,2171
313,2172
314,2173
313,2174
314,2176
314,2177
313,2178
313,2179
313,2180
313,2181
313,2182
313,2183
313,2184
313,2185
313,2186
313,2187
313,2188
313,2189
313,2190
313,2191
313,2192
313,2193
313,2194
313,2195
312,2196
312,2197
312,2198
312,2199
312,2200
312,2201
312,2201
312,2202
312,2203
312,2204
312,2205
312,2206
312,2207
312,2208
312,2209
312,2210
312,2211
312,2212
313,2213
313,2214
313,2215
313,2216
314,2217
314,2219
314,2220
314,2221
314,2222
314,2223
313,2224
313,2225
313,2226
313,2227
314,2228
314,2229
314,2230
314,2231
313,2232
313,2233
313,2234
313,2235
313,2236
313,2237
313,2238
313,2239
312,2240
312,2241
313,2242
313,2243
313,2244
313,2245
313,2246
313,2247
313,2248
314,2249
314,2250
314,2251
314,2252
314,2252
314,2253
314,2254
314,2255
314,2256
313,2257
313,2258
313,2259
313,2260
313,2262
313,2263
312,2264
312,2265
312,2266
312,2267
312,2268
312,2269
312,2270
312,2271
312,2272
312,2273
312,2274
312,2275
312,2276
312,2277
312,2278
311,2279
312,2280
312,2281
311,2282
311,2283
312,2284
312,2285
312,2286
311,2287
312,2288
312,2289
312,2290
312,2291
312,2292
312,2293
312,2294
312,2295
312,2296
312,2297
313,2298
312,2299
312,2300
312,2301
313,2302
313,2304
313,2305
313,2305
313,2306
313,2307
313,2308
313,2309
313,2310
313,2311
313,2312
313,2313
313,2314
313,2315
313,2316
313,2317
312,2318
312,2319
312,2320
312,2321
312,2322
312,2323
311,2324
311,2325
311,2326
311,2327
311,2328
311,2329
311,2330
311,2331
311,2332
311,2333
311,2334
311,2335
311,2336
311,2337
312,2338
312,2339
312,2340
312,2341
312,2342
312,2343
312,2344
312,2345
313,2347
313,2348
313,2349
313,2350
313,2351
313,2352
313,2353
313,2354
314,2355
314,2356
314,2356
314,2357
313,2358
313,2359
312,2360
312,2361
313,2362
312,2363
312,2364
313,2365
313,2366
312,2367
312,2368
312,2369
312,2370
312,2371
312,2372
311,2373
311,2374
311,2375
311,2376
311,2377
311,2378
311,2379
311,2380
311,2381
311,2382
311,2383
311,2384
311,2385
311,2386
311,2387
311,2388
311,2390
310,2391
310,2392
310,2393
310,2394
310,2395
310,2396
311,2397
311,2398
310,2399
311,2400
310,2401
310,2402
310,2403
311,2404
310,2405
310,2406
311,2407
311,2407
311,2408
311,2409
311,2410
311,2411
312,2412
312,2413
312,2414
312,2415
312,2416
312,2417
312,2418
312,2419
312,2420
312,2421
312,2422
311,2423
311,2424
311,2425
311,2426
311,2427
311,2428
311,2429
311,2430
311,2432
311,2433
311,2434
311,2435
311,2436
311,2437
310,2438
310,2439
311,2440
310,2441
310,2442
310,2443
310,2444
311,2445
310,2446
311,2447
311,2448
311,2449
311,2450
311,2451
311,2452
311,2453
311,2454
312,2455
312,2456
312,2457
313,2458
313,2459
314,2459
314,2460
314,2461
315,2462
315,2463
315,2464
314,2465
314,2466
314,2467
313,2468
313,2469
313,2470
312,2471
312,2472
312,2473
312,2475
311,2476
311,2477
311,2478
311,2479
312,2480
312,2481
312,2482
312,2483
312,2484
312,2485
312,2486
312,2487
312,2488
311,2489
311,2490
311,2491
311,2492
311,2493
310,2494
310,2495
310,2496
310,2497
310,2498
310,2499
310,2500
310,2501
310,2502
310,2503
310,2504
311,2505
311,2506
311,2507
311,2508
311,2509
311,2510
311,2510
311,2511
311,2512
311,2513
311,2514
311,2515
311,2516
311,2518
310,2519
311,2520
311,2521
311,2522
311,2523
310,2524
311,2525
311,2526
311,2527
311,2528
311,2529
311,2530
312,2531
312,2532
312,2533
312,2534
312,2535
312,2536
312,2537
312,2538
312,2539
313,2540
313,2541
313,2542
313,2543
313,2544
313,2545
313,2546
312,2547
313,2548
312,2549
312,2550
312,2551
312,2552
312,2553
312,2554
312,2555
312,2556
312,2557
311,2558
311,2560
311,2561
311,2562
311,2563
311,2563
311,2564
311,2565
311,2566
310,2567
310,2568
311,2569
311,2570
311,2571
311,2572
311,2573
312,2574
312,2575
312,2576
312,2577
312,2578
312,2579
312,2580
311,2581
311,2582
311,2583
311,2584
311,2585
311,2586
311,2587
311,2588
311,2589
311,2590
311,2591
311,2592
311,2593
311,2594
311,2595
311,2596
311,2597
311,2598
311,2599
311,2600
311,2601
311,2603
311,2604
311,2605
311,2606
311,2607
311,2608
311,2609
311,2610
311,2611
312,2612
312,2613
312,2614
312,2614
312,2615
312,2616
312,2617
312,2618
312,2619
311,2620
311,2621
311,2622
310,2623
310,2624
310,2625
310,2626
310,2627
310,2628
310,2629
310,2630
310,2631
310,2632
310,2633
310,2634
310,2635
310,2636
310,2637
310,2638
310,2639
310,2640
310,2641
309,2642
309,2643
309,2644
309,2646
309,2647
309,2648
308,2649
308,2650
308,2651
308,2652
308,2653
308,2654
308,2655
308,2656
308,2657
308,2658
308,2659
308,2660
308,2661
308,2662
308,2663
308,2664
308,2665
307,2666
307,2666
307,2667
307,2668
307,2669
307,2670
308,2671
308,2672
308,2673
308,2674
308,2675
309,2676
309,2677
309,2678
309,2679
309,2680
309,2681
309,2682
309,2683
309,2684
309,2685
309,2686
308,2688
308,2689
308,2690
308,2691
309,2692
309,2693
308,2694
308,2695
308,2696
309,2697
309,2698
309,2699
309,2700
309,2701
310,2702
310,2703
311,2704
311,2705
311,2706
311,2707
311,2708
311,2709
311,2710
311,2711
311,2712
311,2713
311,2714
311,2715
311,2716
311,2717
311,2717
310,2718
310,2719
310,2720
310,2721
310,2722
310,2723
309,2724
309,2725
309,2726
309,2727
309,2728
310,2729
310,2731
310,2732
311,2733
311,2734
311,2735
310,2736
311,2737
311,2738
311,2739
311,2740
311,2741
310,2742
310,2743
310,2744
310,2745
310,2746
310,2747
310,2748
310,2749
310,2750
310,2751
309,2752
309,2753
309,2754
308,2755
308,2756
308,2757
308,2758
308,2759
308,2760
308,2761
308,2762
308,2763
308,2764
308,2765
308,2766
308,2767
308,2768
308,2769
308,2769
308,2770
308,2771
308,2772
308,2774
308,2775
308,2776
308,2777
308,2778
308,2779
308,2780
308,2781
308,2782
308,2783
308,2784
309,2785
309,2786
309,2787
309,2788
310,2789
310,2790
310,2791
311,2792
311,2793
311,2794
311,2795
311,2796
311,2797
311,2798
312,2799
312,2800
313,2801
313,2802
313,2803
313,2804
313,2805
313,2806
313,2807
313,2808
313,2809
313,2810
313,2811
313,2812
313,2813
313,2814
312,2816
312,2817
312,2818
311,2819
311,2820
311,2821
310,2821
310,2822
310,2823
310,2824
310,2825
309,2826
309,2827
309,2828
309,2829
309,2830
309,2831
309,2832
309,2833
309,2834
309,2835
309,2836
309,2837
309,2838
309,2839
309,2840
309,2841
309,2842
309,2843
309,2844
308,2845
309,2846
309,2847
309,2848
309,2849
309,2850
309,2851
309,2852
309,2853
309,2854
309,2855
309,2856
309,2857
310,2859
309,2860
310,2861
310,2862
309,2863
310,2864
309,2865
309,2866
309,2867
309,2868
309,2869
309,2870
309,2871
309,2872
309,2873
309,2873
309,2874
310,2875
310,2876
310,2877
310,2878
310,2879
310,2880
311,2881
311,2882
311,2883
311,2884
311,2885
310,2886
310,2887
310,2888
310,2889
310,2890
310,2891
309,2892
309,2893
309,2894
309,2895
310,2896
309,2897
309,2898
309,2899
309,2900
309,2902
309,2903
309,2904
310,2905
310,2906
310,2907
310,2908
310,2909
310,2910
310,2911
310,2912
310,2913
310,2914
310,2915
310,2916
310,2917
310,2918
310,2919
310,2920
310,2921
310,2922
310,2923
310,2924
310,2924
310,2925
310,2926
310,2927
310,2928
310,2929
311,2930
311,2931
311,2932
311,2933
311,2934
312,2935
312,2936
313,2937
313,2938
313,2939
314,2940
314,2941
314,2942
314,2944
314,2945
314,2946
313,2947
313,2948
313,2949
313,2950
313,2951
313,2952
313,2953
313,2954
313,2955
313,2956
313,2957
313,2958
312,2959
312,2960
312,2961
311,2962
311,2963
311,2964
311,2965
311,2966
311,2967
311,2968
311,2969
311,2970
311,2971
311,2972
311,2973
311,2974
311,2975
311,2976
311,2976
311,2977
312,2978
312,2979
312,2980
312,2981
312,2982
312,2983
313,2984
313,2985
313,2987
313,2988
312,2989
312,2990
313,2991
312,2992
312,2993
312,2994
313,2995
312,2996
312,2997
312,2998
312,2999
312,3000
312,3001
312,3002
312,3003
312,3004
312,3005
312,3006
312,3007
312,3008
312,3009
312,3010
313,3011
312,3012
313,3013
312,3014
313,3015
313,3016
313,3017
312,3018
312,3019
313,3020
313,3021
313,3022
313,3023
313,3024
314,3025
314,3026
314,3027
315,3027
315,3028
315,3030
315,3031
315,3032
314,3033
314,3034
314,3035
314,3036
314,3037
314,3038
314,3039
314,3040
314,3041
314,3042
314,3043
314,3044
314,3045
314,3046
314,3047
314,3048
314,3049
315,3050
315,3051
315,3052
315,3053
315,3054
315,3055
314,3056
314,3057
314,3058
314,3059
314,3060
313,3061
314,3062
314,3063
314,3064
314,3065
315,3066
315,3067
316,3068
316,3069
317,3070
317,3072
317,3073
317,3074
317,3075
317,3076
318,3077
318,3078
318,3079
318,3079
318,3080
319,3081
318,3082
319,3083
318,3084
318,3085
318,3086
318,3087
318,3088
318,3089
317,3090
317,3091
317,3092
317,3093
316,3094
316,3095
316,3096
316,3097
316,3098
317,3099
317,3100
317,3101
318,3102
318,3103
318,3104
318,3105
318,3106
318,3107
318,3108
318,3109
318,3110
318,3111
317,3112
317,3113
317,3115
317,3116
317,3117
317,3118
316,3119
316,3120
316,3121
315,3122
315,3123
315,3124
315,3125
315,3126
315,3127
314,3128
315,3129
314,3130
315,3130
315,3131
315,3132
314,3133
314,3134
314,3135
314,3136
314,3137
314,3138
314,3139
314,3140
314,3141
313,3142
313,3143
313,3144
313,3145
313,3146
313,3147
313,3148
313,3149
313,3150
313,3151
313,3152
313,3153
312,3154
312,3155
312,3156
312,3158
312,3159
312,3160
312,3161
311,3162
311,3163
311,3164
311,3165
311,3166
311,3167
311,3168
311,3169
311,3170
311,3171
311,3172
311,3173
311,3174
311,3175
311,3176
311,3177
311,3178
311,3179
310,3180
310,3181
311,3182
310,3182
310,3183
310,3184
310,3185
311,3186
310,3187
311,3188
311,3189
311,3190
311,3191
311,3192
311,3193
312,3194
312,3195
312,3196
312,3197
312,3198
312,3200
312,3201
312,3202
312,3203
313,3204
312,3205
312,3206
313,3207
313,3208
313,3209
312,3210
312,3211
312,3212
312,3213
311,3214
311,3215
311,3216
311,3217
310,3218
310,3219
311,3220
311,3221
311,3222
311,3223
311,3224
310,3225
310,3226
309,3227
309,3228
309,3229
309,3230
310,3231
310,3232
310,3233
309,3233
309,3234
310,3235
310,3236
309,3237
309,3238
309,3239
309,3240
309,3241
309,3243
309,3244
309,3245
309,3246
309,3247
310,3248
310,3249
310,3250
310,3251
310,3252
310,3253
310,3254
310,3255
310,3256
310,3257
309,3258
309,3259
309,3260
309,3261
309,3262
309,3263
309,3264
309,3265
309,3266
309,3267
309,3268
310,3269
310,3270
310,3271
310,3272
311,3273
311,3274
311,3275
311,3276
311,3277
311,3278
311,3279
311,3280
311,3281
311,3282
310,3283
310,3284
310,3286
310,3286
310,3287
310,3288
310,3289
310,3290
310,3291
310,3292
311,3293
311,3294
311,3295
311,3296
311,3297
312,3298
312,3299
312,3300
312,3301
313,3302
313,3303
313,3304
313,3305
313,3306
313,3307
314,3308
314,3309
314,3310
314,3311
314,3312
314,3313
314,3314
314,3315
314,3316
314,3317
314,3318
315,3319
315,3320
315,3321
315,3322
315,3323
315,3324
315,3325
315,3326
315,3328
315,3329
315,3330
315,3331
314,3332
314,3333
314,3334
314,3335
314,3336
314,3337
314,3337
313,3338
313,3339
313,3340
313,3341
313,3342
313,3343
313,3344
314,3345
314,3346
314,3347
314,3348
315,3349
315,3350
314,3351
315,3352
315,3353
315,3354
315,3355
314,3356
314,3357
314,3358
314,3359
314,3360
314,3361
313,3362
313,3363
313,3364
313,3365
314,3366
314,3367
315,3368
316,3369
317,3371
318,3372
319,3373
319,3374
319,3375
319,3376
319,3377
319,3378
318,3379
318,3380
317,3381
317,3382
316,3383
316,3384
316,3385
315,3386
315,3387
314,3388
314,3388
314,3389
315,3390
315,3391
316,3392
316,3393
317,3394
318,3395
318,3396
318,3397
319,3398
319,3399
319,3400
319,3401
319,3402
318,3403
318,3404
317,3405
317,3406
316,3407
316,3408
316,3409
316,3410
316,3411
317,3412
316,3414
316,3415
316,3416
316,3417
315,3418
315,3419
314,3420
314,3421
314,3422
314,3423
313,3424
313,3425
313,3426
313,3427
313,3428
313,3429
313,3430
313,3431
314,3432
314,3433
314,3434
314,3435
314,3436
314,3437
314,3438
314,3439
314,3440
314,3440
314,3441
314,3442
315,3443
315,3444
316,3445
316,3446
317,3447
317,3448
318,3449
318,3450
319,3451
319,3452
320,3453
320,3454
320,3456
320,3457
320,3458
319,3459
319,3460
318,3461
318,3462
317,3463
317,3464
317,3465
317,3466
317,3467
317,3468
316,3469
316,3470
316,3471
316,3472
316,3473
316,3474
316,3475
316,3476
316,3477
315,3478
315,3479
315,3480
314,3481
314,3482
314,3483
314,3484
314,3485
314,3486
314,3487
314,3488
314,3489
313,3490
313,3491
314,3491
313,3492
313,3493
313,3494
313,3495
312,3496
312,3497
312,3499
313,3500
313,3501
314,3502
314,3503
314,3504
314,3505
314,3506
314,3507
314,3508
314,3509
314,3510
314,3511
314,3512
314,3513
314,3514
314,3515
314,3516
314,3517
315,3518
315,3519
315,3520
315,3521
315,3522
315,3523
315,3524
315,3525
315,3526
315,3527
315,3528
315,3529
315,3530
315,3531
316,3532
315,3533
316,3534
315,3535
316,3536
316,3537
316,3538
317,3539
317,3540
317,3542
317,3543
317,3544
317,3544
318,3545
318,3546
319,3547
319,3548
319,3549
319,3550
319,3551
319,3552
318,3553
318,3554
317,3555
317,3556
317,3557
317,3558
316,3559
315,3560
315,3561
314,3562
314,3563
314,3564
315,3565
315,3566
316,3567
316,3568
316,3569
317,3570
317,3571
317,3572
316,3573
316,3574
316,3575
315,3576
315,3577
315,3578
314,3579
314,3580
314,3581
313,3582
313,3584
313,3585
314,3586
314,3587
314,3588
314,3589
315,3590
315,3591
316,3592
317,3593
317,3594
317,3595
317,3595
317,3596
317,3597
317,3598
317,3599
316,3600
316,3601
315,3602
315,3603
315,3604
315,3605
315,3606
315,3607
315,3608
315,3609
315,3610
315,3611
315,3612
315,3613
315,3614
315,3615
315,3616
315,3617
315,3618
315,3619
315,3620
315,3621
314,3622
315,3623
314,3624
314,3625
314,3627
314,3628
314,3629
314,3630
314,3631
314,3632
313,3633
313,3634
312,3635
312,3636
312,3637
312,3638
312,3639
311,3640
311,3641
310,3642
310,3643
310,3644
311,3645
312,3646
313,3646
313,3647
313,3648
313,3649
314,3650
315,3651
315,3652
315,3653
315,3654
315,3655
315,3656
315,3657
315,3658
315,3659
315,3660
315,3661
314,3662
314,3663
314,3664
313,3665
313,3666
312,3667
312,3668
311,3670
311,3671
311,3672
311,3673
310,3674
311,3675
311,3676
311,3677
311,3678
311,3679
311,3680
311,3681
311,3682
311,3683
311,3684
311,3685
311,3686
311,3687
311,3688
311,3689
311,3690
310,3691
310,3692
310,3693
310,3694
309,3695
309,3696
308,3697
308,3698
308,3698
308,3699
308,3700
308,3701
308,3702
308,3703
309,3704
309,3705
310,3706
312,3707
312,3708
313,3709
313,3710
313,3712
312,3713
312,3714
312,3715
311,3716
311,3717
310,3718
310,3719
310,3720
310,3721
309,3722
309,3723
308,3724
308,3725
307,3726
307,3727
307,3728
307,3729
307,3730
306,3731
307,3732
306,3733
307,3734
306,3735
306,3736
306,3737
307,3738
307,3739
308,3740
309,3741
310,3742
310,3743
311,3744
311,3745
311,3746
311,3747
310,3748
310,3749
309,3749
309,3750
308,3751
308,3752
308,3753
308,3755
308,3756
307,3757
307,3758
307,3759
307,3760
307,3761
307,3762
307,3763
307,3764
307,3765
307,3766
308,3767
308,3768
308,3769
308,3770
309,3771
308,3772
309,3773
308,3774
308,3775
309,3776
309,3777
310,3778
310,3779
310,3780
310,3781
311,3782
312,3783
313,3784
314,3785
314,3786
315,3787
315,3788
315,3789
315,3790
315,3791
314,3792
313,3793
312,3794
311,3795
310,3796
310,3798
310,3799
310,3800
311,3801
311,3802
311,3802
311,3803
311,3804
311,3805
311,3806
311,3807
311,3808
310,3809
310,3810
310,3811
309,3812
309,3813
309,3814
309,3815
309,3816
309,3817
309,3818
308,3819
309,3820
308,3821
308,3822
308,3823
309,3824
309,3825
309,3826
309,3827
309,3828
309,3829
309,3830
309,3831
310,3832
310,3833
310,3834
310,3835
311,3836
311,3837
311,3838
312,3840
312,3841
312,3842
312,3843
312,3844
313,3845
314,3846
314,3847
315,3848
315,3849
314,3850
314,3851
314,3852
314,3853
313,3853
313,3854
313,3855
313,3856
312,3857
312,3858
312,3859
312,3860
312,3861
312,3862
312,3863
312,3864
311,3865
311,3866
310,3867
310,3868
309,3869
309,3870
309,3871
310,3872
310,3873
311,3874
311,3875
311,3876
312,3877
311,3878
312,3879
312,3880
312,3881
312,3883
311,3884
311,3885
311,3886
311,3887
311,3888
311,3889
311,3890
311,3891
310,3892
310,3893
310,3894
310,3895
311,3896
311,3897
311,3898
311,3899
311,3900
311,3901
311,3902
311,3903
311,3904
312,3904
312,3905
313,3906
313,3907
314,3908
314,3909
314,3910
314,3911
314,3912
314,3913
314,3914
314,3915
314,3916
315,3917
315,3918
315,3919
315,3920
314,3921
314,3922
313,3923
313,3924
313,3926
313,3927
312,3928
312,3929
312,3930
312,3931
312,3932
312,3933
312,3934
312,3935
312,3936
312,3937
312,3938
311,3939
311,3940
310,3941
310,3942
310,3943
310,3944
310,3945
309,3946
309,3947
309,3948
309,3949
310,3950
310,3951
310,3952
310,3953
310,3954
310,3955
310,3956
310,3956
310,3957
310,3958
310,3959
310,3960
310,3961
310,3962
310,3963
311,3964
310,3965
311,3966
311,3968
311,3969
311,3970
312,3971
312,3972
312,3973
312,3974
312,3975
313,3976
313,3977
313,3978
313,3979
312,3980
312,3981
312,3982
312,3983
311,3984
311,3985
311,3986
311,3987
311,3988
311,3989
311,3990
311,3991
312,3992
312,3993
312,3994
312,3995
312,3996
312,3997
312,3998
311,3999
311,4000
311,4001
310,4002
310,4003
310,4004
310,4005
309,4006
309,4007
309,4007
308,4008
309,4009
309,4011
309,4012
309,4013
309,4014
309,4015
310,4016
310,4017
311,4018
311,4019
311,4020
311,4021
312,4022
312,4023
312,4024
312,4025
312,4026
312,4027
311,4028
311,4029
311,4030
311,4031
311,4032
311,4033
311,4034
311,4035
312,4036
312,4037
312,4038
311,4039
311,4040
311,4041
310,4042
310,4043
310,4044
310,4045
310,4046
311,4047
311,4048
311,4049
311,4050
312,4051
312,4052
312,4054
312,4055
313,4056
313,4057
313,4058
313,4059
313,4060
312,4060
312,4061
312,4062
312,4063
311,4064
311,4065
311,4066
311,4067
311,4068
311,4069
311,4070
311,4071
311,4072
311,4073
311,4074
312,4075
312,4076
312,4077
311,4078
311,4079
311,4080
310,4081
310,4082
310,4083
310,4084
310,4085
310,4086
310,4087
310,4088
310,4089
310,4090
310,4091
310,4092
310,4093
310,4094
310,4096
309,4097
310,4098
310,4099
310,4100
310,4101
310,4102
310,4103
311,4104
311,4105
312,4106
312,4107
313,4108
313,4109
313,4110
313,4111
313,4111
313,4112
313,4113
313,4114
313,4115
312,4116
312,4117
312,4118
312,4119
312,4120
312,4121
312,4122
312,4123
312,4124
312,4125
312,4126
313,4127
313,4128
313,4129
314,4130
314,4131
314,4132
314,4133
314,4134
313,4135
313,4136
313,4137
313,4139
312,4140
312,4141
312,4142
312,4143
312,4144
311,4145
311,4146
311,4147
311,4148
311,4149
311,4150
311,4151
311,4152
311,4153
311,4154
311,4155
311,4156
311,4157
312,4158
312,4159
312,4160
312,4161
313,4162
313,4162
314,4163
314,4164
314,4165
315,4166
315,4167
314,4168
314,4169
313,4170
313,4171
313,4172
313,4173
313,4174
313,4175
313,4176
313,4177
314,4178
313,4179
313,4180
313,4182
314,4183
313,4184
314,4185
314,4186
315,4187
315,4188
315,4189
315,4190
315,4191
315,4192
315,4193
315,4194
315,4195
315,4196
314,4197
315,4198
314,4199
314,4200
314,4201
314,4202
313,4203
313,4204
313,4205
313,4206
313,4207
313,4208
314,4209
314,4210
315,4211
315,4212
315,4213
315,4214
315,4214
314,4215
314,4216
313,4217
312,4218
312,4219
312,4220
313,4221
313,4222
313,4224
313,4225
313,4226
314,4227
314,4228
314,4229
314,4230
313,4231
313,4232
313,4233
313,4234
312,4235
312,4236
312,4237
312,4238
312,4239
312,4240
312,4241
312,4242
312,4243
312,4244
312,4245
313,4246
314,4247
315,4248
316,4249
316,4250
317,4251
317,4252
318,4253
317,4254
317,4255
316,4256
316,4257
315,4258
315,4259
314,4260
314,4261
314,4262
314,4263
314,4264
314,4265
313,4265
313,4267
313,4268
313,4269
313,4270
314,4271
314,4272
315,4273
315,4274
315,4275
315,4276
316,4277
316,4278
315,4279
315,4280
315,4281
314,4282
314,4283
313,4284
313,4285
313,4286
312,4287
312,4288
312,4289
312,4290
311,4291
311,4292
312,4293
312,4294
313,4295
313,4296
314,4297
314,4298
314,4299
314,4300
314,4301
313,4302
313,4303
313,4304
313,4305
313,4306
313,4307
313,4308
314,4310
315,4311
315,4312
316,4313
315,4314
316,4315
315,4316
315,4317
315,4317
315,4318
315,4319
315,4320
315,4321
315,4322
315,4323
314,4324
314,4325
314,4326
314,4327
314,4328
314,4329
314,4330
314,4331
314,4332
314,4333
314,4334
314,4335
314,4336
314,4337
315,4338
315,4339
315,4340
316,4341
316,4342
316,4343
316,4344
316,4345
316,4346
315,4347
315,4348
314,4349
314,4350
314,4352
314,4353
314,4354
314,4355
314,4356
315,4357
315,4358
315,4359
315,4360
315,4361
315,4362
316,4363
316,4364
316,4365
317,4366
317,4367
317,4368
316,4369
316,4369
316,4370
316,4371
316,4372
316,4373
316,4374
315,4375
316,4376
315,4377
315,4378
315,4379
315,4380
315,4381
315,4382
315,4383
315,4384
316,4385
316,4386
316,4387
315,4388
316,4389
315,4390
315,4391
315,4392
315,4393
315,4395
315,4396
316,4397
315,4398
315,4399
315,4400
315,4401
315,4402
316,4403
316,4404
316,4405
315,4406
315,4407
315,4408
315,4409
315,4410
315,4411
315,4412
315,4413
315,4414
315,4415
315,4416
315,4417
314,4418
314,4419
314,4420
314,4420
314,4421
314,4422
314,4423
314,4424
315,4425
314,4426
315,4427
315,4428
315,4429
316,4430
316,4431
317,4432
316,4433
316,4434
316,4435
317,4436
316,4438
316,4439
316,4440
316,4441
316,4442
316,4443
315,4444
315,4445
315,4446
315,4447
314,4448
314,4449
314,4450
314,4451
313,4452
314,4453
314,4454
314,4455
314,4456
314,4457
315,4458
315,4459
315,4460
315,4461
315,4462
315,4463
315,4464
315,4465
315,4466
315,4467
315,4468
316,4469
316,4470
316,4471
317,4471
318,4472
318,4473
318,4474
318,4475
318,4476
317,4477
317,4478
316,4480
316,4481
315,4482
315,4483
315,4484
316,4485
315,4486
315,4487
314,4488
314,4489
313,4490
314,4491
314,4492
314,4493
314,4494
315,4495
315,4496
315,4497
315,4498
315,4499
315,4500
316,4501
316,4502
316,4503
316,4504
316,4505
316,4506
316,4507
315,4508
315,4509
315,4510
315,4511
315,4512
315,4513
315,4514
314,4515
314,4516
314,4517
315,4518
314,4519
314,4520
315,4521
314,4523
315,4524
315,4524
315,4525
315,4526
315,4527
315,4528
315,4529
314,4530
314,4531
314,4532
314,4533
314,4534
314,4535
315,4536
315,4537
314,4538
314,4539
314,4540
314,4541
314,4542
314,4543
314,4544
315,4545
315,4546
315,4547
315,4548
315,4549
315,4550
315,4551
314,4552
314,4553
314,4554
314,4555
314,4556
314,4557
314,4558
314,4559
314,4560
314,4561
314,4562
314,4563
314,4564
314,4566
314,4567
314,4568
313,4569
313,4570
313,4571
313,4572
313,4573
313,4574
314,4575
314,4575
315,4576
315,4577
315,4578
315,4579
314,4580
314,4581
314,4582
314,4583
313,4584
313,4585
313,4586
313,4587
313,4588
313,4589
313,4590
313,4591
313,4592
313,4593
313,4594
313,4595
313,4596
314,4597
314,4598
315,4599
315,4600
315,4601
315,4602
315,4603
314,4604
313,4605
313,4606
312,4608
312,4609
312,4610
312,4611
312,4612
312,4613
311,4614
311,4615
311,4616
311,4617
311,4618
311,4619
311,4620
311,4621
311,4622
311,4623
311,4624
311,4625
311,4626
311,4626
310,4627
310,4628
310,4629
310,4630
310,4631
310,4632
310,4633
310,4634
310,4635
310,4636
310,4637
310,4638
310,4639
310,4640
311,4641
311,4642
311,4643
312,4644
312,4645
311,4646
311,4647
310,4648
310,4649
310,4651
311,4652
311,4653
311,4654
311,4655
311,4656
311,4657
311,4658
311,4659
310,4660
310,4661
311,4662
310,4663
311,4664
311,4665
311,4666
311,4667
311,4668
311,4669
311,4670
312,4671
312,4672
312,4673
312,4674
312,4675
312,4676
311,4677
311,4678
311,4678
311,4679
311,4680
310,4681
311,4682
311,4683
311,4684
310,4685
310,4686
310,4687
309,4688
309,4689
309,4690
308,4691
308,4692
308,4694
308,4695
308,4696
308,4697
308,4698
309,4699
309,4700
309,4701
309,4702
308,4703
309,4704
309,4705
309,4706
309,4707
308,4708
309,4709
309,4710
309,4711
309,4712
308,4713
309,4714
308,4715
308,4716
308,4717
308,4718
308,4719
308,4720
308,4721
309,4722
309,4723
309,4724
309,4725
310,4726
310,4727
310,4728
310,4729
311,4729
311,4730
312,4731
312,4732
312,4733
313,4734
312,4736
312,4737
312,4738
311,4739
311,4740
310,4741
310,4742
310,4743
309,4744
309,4745
308,4746
308,4747
308,4748
308,4749
308,4750
308,4751
309,4752
309,4753
309,4754
310,4755
310,4756
310,4757
310,4758
310,4759
310,4760
311,4761
310,4762
310,4763
310,4764
310,4765
310,4766
309,4767
309,4768
310,4769
309,4770
309,4771
309,4772
309,4773
309,4774
309,4775
309,4776
309,4777
309,4779
309,4780
309,4781
309,4781
308,4782
308,4783
308,4784
308,4785
307,4786
307,4787
308,4788
308,4789
309,4790
309,4791
309,4792
310,4793
310,4794
310,4795
309,4796
309,4797
309,4798
309,4799
308,4800
308,4801
308,4802
308,4803
308,4804
308,4805
309,4806
309,4807
309,4808
310,4809
310,4810
310,4811
311,4812
310,4813
310,4814
310,4815
310,4816
310,4817
311,4818
311,4819
311,4820
311,4822
312,4823
311,4824
312,4825
312,4826
311,4827
311,4828
311,4829
311,4830
311,4831
311,4832
311,4833
311,4833
311,4834
311,4835
311,4836
311,4837
311,4838
310,4839
310,4840
310,4841
310,4842
309,4843
310,4844
310,4845
311,4846
312,4847
313,4848
314,4849
315,4850
315,4851
315,4852
315,4853
315,4854
315,4855
315,4856
315,4857
314,4858
314,4859
314,4860
313,4861
313,4862
313,4864
312,4865
311,4866
311,4867
310,4868
310,4869
310,4870
310,4871
309,4872
310,4873
310,4874
310,4875
311,4876
311,4877
311,4878
310,4879
310,4880
310,4881
310,4882
310,4883
310,4884
310,4884
310,4885
311,4886
311,4887
311,4888
311,4889
312,4890
312,4891
311,4892
311,4893
311,4894
311,4895
311,4896
311,4897
311,4898
310,4899
310,4900
310,4901
310,4902
310,4903
310,4904
310,4905
311,4907
311,4908
311,4909
311,4910
312,4911
312,4912
312,4913
312,4914
312,4915
312,4916
312,4917
312,4918
312,4919
312,4920
312,4921
312,4922
311,4923
311,4924
311,4925
311,4926
311,4927
311,4928
312,4929
312,4930
313,4931
313,4932
313,4933
313,4934
313,4935
313,4936
313,4936
313,4937
313,4938
313,4939
313,4940
313,4941
313,4942
313,4943
312,4944
311,4945
311,4946
311,4947
311,4948
311,4950
311,4951
311,4952
312,4953
313,4954
313,4955
313,4956
313,4957
312,4958
312,4959
311,4960
311,4961
311,4962
312,4963
312,4964
313,4965
314,4966
315,4967
315,4968
315,4969
314,4970
313,4971
313,4972
313,4973
313,4974
313,4975
313,4976
313,4977
313,4978
312,4979
312,4980
311,4981
311,4982
311,4983
312,4984
312,4985
312,4986
313,4987
313,4987
313,4988
313,4989
313,4990
312,4992
312,4993
312,4994
312,4995
312,4996
312,4997
312,4998
311,4999
311,5000
311,5001
311,5002
311,5003
311,5004
311,5005
311,5006
311,5007
311,5008
311,5009
311,5010
311,5011
311,5012
311,5013
311,5014
311,5015
312,5016
311,5017
312,5018
311,5019
311,5020
311,5021
311,5022
311,5023
311,5024
311,5025
311,5026
311,5027
311,5028
311,5029
311,5030
311,5031
311,5032
311,5033
312,5035
312,5036
312,5037
313,5038
313,5039
313,5039
313,5040
313,5041
314,5042
314,5043
314,5044
314,5045
314,5046
314,5047
313,5048
312,5049
311,5050
310,5051
310,5052
310,5053
310,5054
310,5055
311,5056
310,5057
311,5058
311,5059
310,5060
310,5061
310,5062
310,5063
310,5064
310,5065
310,5066
310,5067
310,5068
309,5069
310,5070
310,5071
310,5072
309,5073
309,5074
309,5075
309,5076
310,5078
311,5079
311,5080
312,5081
312,5082
313,5083
313,5084
313,5085
313,5086
312,5087
312,5088
312,5089
311,5090
311,5091
311,5091
311,5092
311,5093
311,5094
312,5095
312,5096
312,5097
311,5098
310,5099
310,5100
309,5101
309,5102
309,5103
310,5104
310,5105
310,5106
310,5107
310,5108
311,5109
311,5110
311,5111
311,5112
311,5113
311,5114
311,5115
311,5116
311,5117
310,5118
310,5120
310,5121
310,5122
310,5123
309,5124
309,5125
309,5126
309,5127
310,5128
310,5129
311,5130
312,5131
312,5132
312,5133
312,5134
312,5135
312,5136
312,5137
312,5138
312,5139
312,5140
312,5141
312,5142
312,5143
312,5143
311,5144
311,5145
311,5146
311,5147
310,5148
310,5149
310,5150
310,5151
311,5152
311,5153
311,5154
311,5155
311,5156
312,5157
312,5158
312,5159
313,5160
314,5161
314,5163
314,5164
315,5165
314,5166
314,5167
314,5168
314,5169
314,5170
315,5171
314,5172
314,5173
314,5174
314,5175
314,5176
314,5177
314,5178
313,5179
313,5180
312,5181
312,5182
312,5183
312,5184
312,5185
312,5186
312,5187
312,5188
312,5189
312,5190
312,5191
312,5192
313,5193
313,5194
313,5194
313,5195
313,5196
313,5197
313,5198
312,5199
312,5200
311,5201
311,5202
310,5203
310,5204
310,5206
309,5207
310,5208
310,5209
311,5210
311,5211
311,5212
311,5213
311,5214
311,5215
311,5216
311,5217
312,5218
312,5219
312,5220
312,5221
312,5222
312,5223
312,5224
312,5225
312,5226
312,5227
313,5228
314,5229
314,5230
313,5231
312,5232
313,5233
314,5234
316,5235
319,5236
322,5237
324,5238
325,5239
324,5240
323,5241
321,5242
318,5243
315,5244
313,5245
312,5246
312,5246
313,5248
313,5249
313,5250
313,5251
313,5252
314,5253
313,5254
314,5255
313,5256
313,5257
313,5258
313,5259
313,5260
313,5261
313,5262
315,5263
316,5264
318,5265
319,5266
318,5267
316,5268
314,5269
312,5270
311,5271
312,5272
316,5273
319,5274
322,5275
323,5276
320,5277
317,5278
314,5279
313,5280
314,5281
316,5282
319,5283
326,5284
331,5285
335,5286
338,5287
341,5288
342,5289
340,5291
338,5292
336,5293
333,5294
330,5295
327,5296
323,5297
319,5298
316,5299
315,5299
313,5300
312,5301
310,5302
308,5303
308,5304
309,5305
310,5306
311,5307
313,5308
316,5309
321,5310
327,5311
333,5312
336,5313
339,5314
339,5315
337,5316
334,5317
331,5318
328,5319
325,5320
323,5321
320,5322
318,5323
316,5324
316,5325
317,5326
318,5327
320,5328
320,5329
319,5330
318,5331
318,5332
320,5334
326,5335
331,5336
335,5337
339,5338
340,5339
338,5340
333,5341
327,5342
323,5343
320,5344
320,5345
320,5346
321,5347
321,5348
321,5349
322,5350
323,5350
323,5351
323,5352
324,5353
324,5354
326,5355
328,5356
330,5357
331,5358
332,5359
336,5360
340,5361
344,5362
348,5363
351,5364
354,5365
354,5366
353,5367
350,5368
346,5369
342,5370
340,5371
337,5372
336,5373
334,5374
333,5376
331,5377
330,5378
329,5379
329,5380
330,5381
331,5382
331,5383
330,5384
332,5385
332,5386
333,5387
334,5388
338,5389
341,5390
341,5391
340,5392
340,5393
340,5394
338,5395
334,5396
330,5397
330,5398
333,5399
339,5400
345,5401
349,5401
350,5402
350,5403
349,5404
347,5405
343,5406
340,5407
339,5408
339,5409
338,5410
338,5411
338,5412
337,5413
335,5414
334,5415
334,5416
333,5417
334,5419
337,5420
340,5421
343,5422
345,5423
346,5424
346,5425
344,5426
340,5427
338,5428
338,5429
338,5430
338,5431
344,5432
351,5433
354,5434
357,5435
359,5436
358,5437
355,5438
351,5439
348,5440
345,5441
342,5442
340,5443
338,5444
335,5445
331,5446
330,5447
328,5448
327,5449
326,5450
324,5451
325,5452
328,5453
333,5453
337,5454
339,5455
339,5456
338,5457
336,5458
331,5459
328,5460
328,5462
330,5463
334,5464
337,5465
341,5466
344,5467
346,5468
348,5469
350,5470
350,5471
350,5472
350,5473
350,5474
348,5475
346,5476
344,5477
343,5478
341,5479
337,5480
334,5481
332,5482
330,5483
330,5484
332,5485
333,5486
334,5487
337,5488
340,5489
342,5490
344,5491
345,5492
343,5493
341,5494
337,5495
334,5496
331,5497
330,5498
329,5499
328,5500
328,5501
327,5502
324,5504
321,5505
319,5505
317,5506
316,5507
319,5508
321,5509
323,5510
325,5511
326,5512
326,5513
327,5514
328,5515
328,5516
327,5517
328,5518
331,5519
333,5520
334,5521
334,5522
334,5523
334,5524
336,5525
337,5526
341,5527
342,5528
342,5529
343,5530
342,5531
340,5532
337,5533
332,5534
329,5535
329,5536
331,5537
335,5538
339,5539
342,5540
343,5541
341,5542
339,5543
338,5544
337,5545
337,5547
336,5548
336,5549
336,5550
338,5551
340,5552
343,5553
348,5554
352,5555
355,5556
354,5557
351,5557
349,5558
345,5559
339,5560
334,5561
328,5562
323,5563
317,5564
313,5565
311,5566
310,5567
311,5568
313,5569
313,5570
313,5571
320,5572
328,5573
334,5574
339,5575
341,5576
340,5577
336,5578
331,5579
325,5580
318,5581
314,5582
314,5583
318,5584
320,5585
321,5586
324,5587
328,5588
330,5590
329,5591
327,5592
324,5593
320,5594
317,5595
316,5596
313,5597
311,5598
310,5599
310,5600
311,5601
312,5602
313,5603
314,5604
313,5605
312,5606
310,5607
308,5608
306,5608
305,5609
304,5610
303,5611
304,5612
304,5613
304,5614
304,5615
306,5616
307,5617
309,5618
312,5619
319,5620
326,5621
331,5622
335,5623
335,5624
333,5625
327,5626
321,5627
318,5628
318,5629
322,5630
330,5632
336,5633
337,5634
336,5635
334,5636
330,5637
325,5638
320,5639
317,5640
315,5641
315,5642
318,5643
319,5644
318,5645
317,5646
317,5647
314,5648
311,5649
308,5650
306,5651
303,5652
303,5653
304,5654
304,5655
303,5656
303,5657
302,5658
299,5659
299,5660
302,5660
306,5661
311,5662
317,5663
321,5664
324,5665
323,5666
319,5667
316,5668
312,5669
311,5670
310,5671
308,5672
306,5673
306,5675
308,5676
311,5677
314,5678
317,5679
320,5680
321,5681
320,5682
317,5683
315,5684
314,5685
314,5686
313,5687
314,5688
313,5689
311,5690
313,5691
315,5692
315,5693
315,5694
314,5695
317,5696
318,5697
317,5698
315,5699
313,5700
312,5701
309,5702
308,5703
307,5704
307,5705
306,5706
305,5707
304,5708
301,5709
298,5710
296,5711
300,5711
304,5712
307,5713
310,5714
318,5715
322,5716
322,5718
322,5719
320,5720
316,5721
313,5722
310,5723
304,5724
300,5725
301,5726
304,5727
304,5728
306,5729
307,5730
309,5731
309,5732
308,5733
307,5734
308,5735
313,5736
318,5737
321,5738
323,5739
324,5740
325,5741
323,5742
319,5743
315,5744
311,5745
306,5746
302,5747
299,5748
295,5749
295,5750
298,5751
302,5752
309,5753
318,5754
323,5755
326,5756
325,5757
322,5758
318,5760
312,5761
306,5762
301,5763
297,5764
295,5764
294,5765
293,5766
293,5767
294,5768
294,5769
295,5770
295,5771
296,5772
298,5773
300,5774
303,5775
306,5776
309,5777
312,5778
310,5779
307,5780
304,5781
302,5782
301,5783
302,5784
304,5785
304,5786
304,5787
304,5788
305,5789
307,5790
310,5791
314,5792
318,5793
319,5794
318,5795
317,5796
314,5797
312,5798
314,5799
318,5800
319,5801
320,5803
319,5804
318,5805
315,5806
310,5807
306,5808
305,5809
306,5810
307,5811
306,5812
305,5813
305,5814
304,5815
304,5815
304,5816
303,5817
304,5818
304,5819
304,5820
305,5821
306,5822
307,5823
306,5824
305,5825
305,5826
305,5827
305,5828
307,5829
308,5830
312,5831
314,5832
314,5833
313,5834
310,5835
310,5836
309,5837
307,5838
304,5839
303,5840
302,5841
301,5842
298,5843
299,5844
300,5846
302,5847
303,5848
303,5849
302,5850
306,5851
313,5852
319,5853
323,5854
324,5855
322,5856
315,5857
306,5858
298,5859
294,5860
293,5861
292,5862
292,5863
290,5864
289,5865
290,5866
290,5866
291,5867
291,5868
291,5869
290,5870
290,5871
290,5872
291,5873
293,5874
296,5875
299,5876
301,5877
302,5878
302,5879
301,5880
298,5881
298,5882
300,5883
303,5884
309,5885
316,5886
324,5888
331,5889
330,5890
327,5891
323,5892
319,5893
314,5894
311,5895
311,5896
312,5897
313,5898
312,5899
309,5900
306,5901
306,5902
304,5903
300,5904
297,5905
294,5906
292,5907
293,5908
292,5909
292,5910
290,5911
290,5912
289,5913
288,5914
286,5915
287,5916
292,5917
296,5918
300,5918
305,5919
309,5920
309,5921
307,5922
304,5923
303,5924
304,5925
307,5926
308,5927
311,5928
316,5929
318,5931
319,5932
320,5933
317,5934
312,5935
307,5936
303,5937
299,5938
301,5939
305,5940
311,5941
317,5942
325,5943
329,5944
329,5945
326,5946
321,5947
317,5948
314,5949
313,5950
314,5951
315,5952
319,5953
324,5954
327,5955
327,5956
326,5957
322,5958
316,5959
310,5960
303,5961
300,5962
299,5963
299,5964
298,5965
298,5966
296,5967
294,5968
293,5969
291,5969
291,5970
290,5971
290,5972
291,5974
294,5975
297,5976
300,5977
302,5978
304,5979
306,5980
307,5981
311,5982
315,5983
317,5984
317,5985
315,5986
311,5987
305,5988
300,5989
297,5990
294,5991
297,5992
303,5993
308,5994
309,5995
310,5996
308,5997
305,5998
300,5999
297,6000
300,6001
305,6002
312,6003
318,6004
321,6005
324,6006
323,6007
320,6008
316,6009
314,6010
313,6011
311,6012
308,6013
307,6014
305,6016
305,6017
304,6018
306,6019
310,6020
311,6021
310,6021
309,6022
307,6023
303,6024
299,6025
295,6026
293,6027
293,6028
293,6029
296,6030
297,6031
300,6032
302,6033
304,6034
306,6035
306,6036
305,6037
304,6038
304,6039
301,6040
302,6041
302,6042
304,6043
305,6044
309,6045
313,6046
317,6047
318,6048
316,6049
310,6050
304,6051
297,6052
294,6053
296,6054
298,6055
300,6056
301,6057
301,6059
302,6060
303,6061
304,6062
305,6063
306,6064
307,6065
308,6066
309,6067
309,6068
305,6069
305,6070
308,6071
309,6072
310,6073
314,6073
318,6074
319,6075
315,6076
308,6077
300,6078
295,6079
290,6080
288,6081
289,6082
293,6083
297,6084
299,6085
300,6086
302,6087
302,6088
303,6089
302,6090
302,6091
303,6092
304,6093
307,6094
312,6095
318,6096
321,6097
322,6098
321,6099
319,6100
315,6102
310,6103
306,6104
300,6105
297,6106
296,6107
295,6108
298,6109
302,6110
306,6111
309,6112
309,6113
309,6114
309,6115
306,6116
304,6117
305,6118
305,6119
304,6120
305,6121
306,6122
308,6123
310,6124
314,6124
320,6125
321,6126
320,6127
318,6128
315,6129
311,6130
305,6131
300,6132
297,6133
295,6134
297,6135
299,6136
300,6137
302,6138
305,6139
305,6140
304,6141
304,6142
307,6144
308,6145
309,6146
312,6147
314,6148
319,6149
322,6150
322,6151
320,6152
316,6153
309,6154
300,6155
294,6156
288,6157
287,6158
287,6159
287,6160
287,6161
287,6162
287,6163
288,6164
288,6165
288,6166
288,6167
289,6168
292,6169
296,6170
302,6171
305,6172
307,6173
310,6174
313,6175
314,6175
316,6176
317,6177
316,6178
317,6179
323,6180
328,6181
330,6182
332,6183
331,6184
328,6185
320,6187
311,6188
304,6189
301,6190
302,6191
304,6192
304,6193
307,6194
308,6195
307,6196
305,6197
304,6198
302,6199
306,6200
314,6201
322,6202
329,6203
334,6204
334,6205
328,6206
318,6207
307,6208
295,6209
290,6210
290,6211
291,6212
294,6213
297,6214
301,6215
304,6216
306,6217
306,6218
304,6219
299,6220
296,6221
294,6222
293,6223
291,6224
289,6225
289,6226
292,6226
294,6227
295,6228
295,6230
294,6231
294,6232
296,6233
304,6234
312,6235
320,6236
323,6237
324,6238
324,6239
320,6240
316,6241
314,6242
314,6243
314,6244
312,6245
309,6246
307,6247
304,6248
302,6249
299,6250
297,6251
295,6252
295,6253
294,6254
296,6255
297,6256
299,6257
300,6258
301,6259
302,6260
305,6261
310,6262
318,6263
322,6264
324,6265
325,6266
322,6267
317,6268
311,6269
306,6270
305,6272
308,6273
309,6274
310,6275
308,6276
305,6277
303,6278
298,6279
294,6279
292,6280
291,6281
294,6282
295,6283
294,6284
293,6285
295,6286
301,6287
307,6288
313,6289
317,6290
317,6291
317,6292
317,6293
316,6294
316,6295
317,6296
319,6297
316,6298
311,6299
306,6300
301,6301
300,6302
299,6303
296,6304
294,6305
293,6306
293,6307
294,6308
298,6309
305,6310
311,6311
316,6312
321,6313
324,6315
324,6316
322,6317
320,6318
318,6319
316,6320
314,6321
310,6322
307,6323
307,6324
310,6325
310,6326
309,6327
307,6328
306,6329
305,6330
304,6330
304,6331
306,6332
308,6333
309,6334
311,6335
316,6336
319,6337
322,6338
327,6339
332,6340
335,6341
334,6342
331,6343
325,6344
319,6345
311,6346
300,6347
292,6348
288,6349
285,6350
283,6351
283,6352
283,6353
285,6354
289,6355
292,6356
294,6358
295,6359
301,6360
311,6361
319,6362
323,6363
325,6364
329,6365
328,6366
322,6367
321,6368
320,6369
317,6370
315,6371
311,6372
306,6373
303,6374
301,6375
299,6376
297,6377
298,6378
298,6379
298,6380
297,6381
295,6381
293,6382
292,6383
292,6384
294,6385
294,6386
296,6387
296,6388
296,6389
300,6390
305,6391
311,6392
317,6393
322,6394
324,6395
322,6396
318,6397
314,6398
309,6400
306,6401
302,6402
299,6403
297,6404
296,6405
296,6406
297,6407
298,6408
297,6409
299,6410
300,6411
303,6412
306,6413
310,6414
312,6415
314,6416
315,6417
312,6418
314,6419
316,6420
316,6421
313,6422
309,6423
309,6424
310,6425
309,6426
307,6427
304,6428
301,6429
295,6430
290,6431
287,6432
287,6433
289,6433
292,6434
295,6435
301,6436
309,6437
315,6438
319,6439
321,6440
321,6441
319,6443
317,6444
314,6445
310,6446
307,6447
306,6448
303,6449
301,6450
299,6451
301,6452
302,6453
302,6454
301,6455
301,6456
299,6457
300,6458
301,6459
303,6460
306,6461
307,6462
305,6463
300,6464
295,6465
292,6466
291,6467
297,6468
304,6469
310,6470
315,6471
320,6472
320,6473
318,6474
317,6475
314,6476
312,6477
311,6478
309,6479
305,6480
301,6481
297,6482
295,6483
296,6484
300,6486
304,6486
305,6487
306,6488
306,6489
303,6490
299,6491
298,6492
301,6493
304,6494
309,6495
315,6496
319,6497
323,6498
325,6499
326,6500
325,6501
322,6502
318,6503
312,6504
305,6505
302,6506
301,6507
307,6508
313,6509
318,6510
320,6511
320,6512
319,6513
315,6514
310,6515
306,6516
303,6517
302,6518
301,6519
299,6520
295,6521
293,6522
291,6523
292,6524
297,6525
303,6526
309,6528
313,6529
315,6530
315,6531
313,6532
309,6533
304,6534
304,6535
303,6536
303,6537
303,6537
302,6538
305,6539
308,6540
311,6541
313,6542
316,6543
318,6544
316,6545
313,6546
310,6547
308,6548
306,6549
306,6550
310,6551
315,6552
318,6553
320,6554
318,6555
315,6556
310,6557
306,6558
304,6559
306,6560
310,6561
313,6562
314,6563
314,6564
314,6565
311,6566
309,6567
308,6568
306,6569
304,6571
302,6572
301,6573
304,6574
308,6575
311,6576
314,6577
317,6578
319,6579
317,6580
313,6581
308,6582
305,6583
304,6584
308,6585
312,6586
318,6587
322,6588
323,6588
320,6589
315,6590
310,6591
307,6592
306,6593
306,6594
307,6595
306,6596
305,6597
304,6598
304,6599
308,6600
314,6601
319,6602
322,6603
328,6604
328,6605
328,6606
328,6607
327,6608
325,6609
317,6610
307,6611
300,6612
298,6614
301,6615
304,6616
310,6617
315,6618
321,6619
324,6620
323,6621
321,6622
317,6623
312,6624
305,6625
298,6626
292,6627
288,6628
287,6629
288,6630
290,6631
292,6632
294,6633
296,6634
302,6635
308,6636
313,6637
318,6638
320,6639
320,6640
317,6640
312,6641
307,6642
303,6643
301,6644
299,6645
299,6646
299,6647
299,6648
298,6649
297,6650
295,6651
296,6652
295,6653
295,6654
296,6656
295,6657
295,6658
303,6659
311,6660
320,6661
329,6662
337,6663
337,6664
333,6665
325,6666
315,6667
306,6668
302,6669
298,6670
297,6671
299,6672
301,6673
302,6674
302,6675
303,6676
304,6677
304,6678
302,6679
300,6680
300,6681
299,6682
300,6683
300,6684
303,6685
307,6686
311,6687
315,6688
322,6689
328,6690
331,6691
335,6691
339,6692
341,6693
340,6694
340,6695
338,6696
331,6697
324,6699
315,6700
308,6701
303,6702
301,6703
296,6704
295,6705
296,6706
298,6707
302,6708
305,6709
313,6710
321,6711
327,6712
332,6713
337,6714
338,6715
333,6716
323,6717
312,6718
303,6719
299,6720
298,6721
300,6722
304,6723
310,6724
318,6725
322,6726
322,6727
320,6728
317,6729
315,6730
313,6731
309,6732
304,6733
301,6734
300,6735
297,6736
295,6737
293,6738
293,6739
294,6740
295,6742
298,6743
300,6744
300,6744
303,6745
310,6746
318,6747
326,6748
331,6749
334,6750
332,6751
325,6752
316,6753
308,6754
306,6755
307,6756
310,6757
312,6758
312,6759
313,6760
314,6761
315,6762
314,6763
314,6764
315,6765
323,6766
332,6767
338,6768
339,6769
336,6770
332,6771
323,6772
316,6773
313,6774
311,6775
309,6776
307,6777
303,6778
299,6779
296,6780
293,6781
292,6782
291,6784
292,6785
296,6786
300,6787
303,6788
307,6789
313,6790
315,6791
315,6792
317,6793
319,6794
321,6795
324,6795
324,6796
322,6797
318,6798
312,6799
306,6800
303,6801
299,6802
297,6803
295,6804
293,6805
292,6806
295,6807
297,6808
297,6809
296,6810
296,6811
295,6812
293,6813
291,6814
291,6815
293,6816
297,6817
300,6818
302,6819
303,6820
303,6821
303,6822
306,6823
307,6824
309,6825
312,6827
318,6828
323,6829
325,6830
323,6831
323,6832
324,6833
324,6834
323,6835
321,6836
320,6837
317,6838
312,6839
309,6840
305,6841
302,6842
299,6843
298,6844
300,6845
304,6846
311,6847
316,6847
320,6848
323,6849
328,6850
329,6851
330,6852
330,6853
329,6854
327,6855
324,6856
321,6857
317,6858
315,6859
312,6860
309,6861
308,6862
306,6863
303,6864
301,6865
298,6866
295,6867
293,6868
294,6870
297,6871
300,6872
303,6873
304,6874
306,6875
307,6876
308,6877
306,6878
307,6879
310,6880
315,6881
318,6882
318,6883
317,6884
317,6885
317,6886
316,6887
314,6888
313,6889
313,6890
312,6891
310,6892
310,6893
309,6894
309,6895
310,6896
310,6897
309,6898
307,6898
306,6899
304,6900
303,6901
303,6902
306,6903
311,6904
317,6905
323,6906
325,6907
325,6908
322,6909
319,6910
315,6912
314,6913
312,6914
309,6915
310,6916
310,6917
310,6918
311,6919
312,6920
312,6921
312,6922
312,6923
312,6924
316,6925
321,6926
327,6927
332,6928
330,6929
324,6930
314,6931
306,6932
300,6933
299,6934
302,6935
303,6936
304,6937
308,6938
311,6939
314,6940
317,6941
317,6942
315,6943
313,6944
308,6945
303,6946
298,6947
294,6948
291,6949
292,6949
293,6950
296,6951
302,6952
308,6953
314,6955
317,6956
318,6957
316,6958
314,6959
312,6960
310,6961
308,6962
312,6963
315,6964
319,6965
320,6966
319,6967
316,6968
311,6969
305,6970
302,6971
300,6972
300,6973
302,6974
309,6975
314,6976
321,6977
326,6978
329,6979
328,6980
325,6981
322,6982
319,6983
314,6984
310,6985
308,6986
308,6987
307,6988
303,6989
299,6990
296,6991
294,6992
295,6993
298,6994
305,6995
315,6996
323,6998
330,6999
332,7000
331,7001
326,7002
317,7002
310,7003
307,7004
308,7005
306,7006
302,7007
300,7008
298,7009
296,7010
296,7011
297,7012
299,7013
302,7014
303,7015
306,7016
307,7017
308,7018
308,7019
309,7020
308,7021
306,7022
305,7023
307,7024
306,7025
307,7026
309,7027
309,7028
310,7029
312,7030
312,7031
311,7032
311,7033
310,7034
309,7035
308,7036
306,7037
306,7038
305,7040
305,7041
305,7042
309,7043
313,7044
316,7045
320,7046
325,7047
331,7048
334,7049
335,7050
332,7051
329,7052
325,7053
319,7054
311,7054
304,7055
298,7056
294,7057
294,7058
294,7059
296,7060
299,7061
301,7062
303,7063
305,7064
306,7065
307,7066
310,7067
309,7068
307,7069
306,7070
308,7071
310,7072
312,7073
314,7074
315,7075
312,7076
304,7077
298,7078
295,7079
295,7080
297,7081
299,7083
301,7084
302,7085
301,7086
301,7087
301,7088
303,7089
304,7090
302,7091
301,7092
300,7093
298,7094
300,7095
309,7096
320,7097
332,7098
340,7099
343,7100
339,7101
332,7102
325,7103
322,7104
323,7105
323,7105
320,7106
315,7107
309,7108
303,7109
300,7110
298,7111
299,7112
303,7113
307,7114
309,7115
310,7116
311,7117
315,7118
319,7119
323,7120
330,7121
332,7122
334,7123
333,7124
331,7126
330,7127
330,7128
330,7129
326,7130
323,7131
323,7132
322,7133
321,7134
324,7135
323,7136
322,7137
319,7138
317,7139
312,7140
305,7141
301,7142
299,7143
302,7144
308,7145
311,7146
313,7147
314,7148
311,7149
308,7150
306,7151
306,7152
304,7153
302,7154
299,7155
295,7156
294,7156
294,7157
295,7158
295,7159
298,7160
303,7161
306,7162
313,7163
321,7164
326,7165
327,7166
324,7168
320,7169
314,7170
304,7171
296,7172
290,7173
289,7174
292,7175
298,7176
303,7177
306,7178
308,7179
308,7180
308,7181
308,7182
308,7183
307,7184
307,7185
311,7186
317,7187
325,7188
332,7189
336,7190
337,7191
336,7192
332,7193
329,7194
324,7195
322,7196
321,7197
322,7198
322,7199
320,7200
318,7201
314,7202
309,7203
302,7204
297,7205
294,7206
296,7207
303,7208
317,7208
330,7209
341,7211
349,7212
350,7213
344,7214
333,7215
319,7216
307,7217
298,7218
292,7219
286,7220
283,7221
280,7222
279,7223
280,7224
281,7225
283,7226
285,7227
288,7228
290,7229
293,7230
295,7231
304,7232
313,7233
320,7234
329,7235
339,7236
345,7237
342,7238
338,7239
335,7240
330,7241
324,7242
321,7243
319,7244
315,7245
311,7246
310,7247
310,7248
312,7249
313,7250
312,7251
309,7252
304,7254
299,7255
292,7256
287,7257
285,7258
288,7259
291,7260
297,7260
302,7261
306,7262
311,7263
318,7264
322,7265
324,7266
328,7267
327,7268
323,7269
314,7270
305,7271
300,7272
300,7273
300,7274
302,7275
303,7276
303,7277
302,7278
301,7279
300,7280
300,7281
301,7282
301,7283
300,7284
298,7285
302,7286
312,7287
323,7288
330,7289
334,7290
335,7291
333,7292
325,7293
318,7294
311,7296
307,7297
304,7298
304,7299
305,7300
307,7301
308,7302
309,7303
308,7304
308,7305
310,7306
310,7307
310,7308
311,7309
310,7310
306,7311
303,7311
300,7312
299,7313
305,7314
313,7315
318,7316
322,7317
322,7318
323,7319
323,7320
321,7321
317,7322
311,7323
305,7324
301,7325
300,7326
302,7327
303,7328
304,7329
302,7330
301,7331
297,7332
293,7333
292,7334
292,7335
295,7336
298,7337
300,7339
303,7340
306,7341
309,7342
313,7343
322,7344
326,7345
327,7346
328,7347
328,7348
325,7349
320,7350
318,7351
319,7352
322,7353
323,7354
321,7355
318,7356
312,7357
304,7358
298,7359
294,7360
296,7361
298,7362
300,7363
302,7363
302,7364
300,7365
297,7366
295,7367
295,7368
298,7369
303,7370
306,7371
307,7372
306,7373
305,7374
302,7375
302,7376
303,7377
306,7378
310,7379
313,7380
313,7382
312,7383
310,7384
305,7385
303,7386
300,7387
299,7388
301,7389
303,7390
310,7391
317,7392
321,7393
322,7394
324,7395
325,7396
322,7397
315,7398
309,7399
302,7400
297,7401
294,7402
294,7403
295,7404
298,7405
302,7406
305,7407
307,7408
310,7409
312,7410
317,7411
321,7412
324,7413
324,7414
321,7414
322,7415
326,7416
328,7417
333,7418
336,7419
336,7420
336,7421
333,7422
327,7424
323,7425
320,7426
315,7427
309,7428
303,7429
295,7430
292,7431
290,7432
288,7433
288,7434
292,7435
299,7436
303,7437
305,7438
306,7439
307,7440
307,7441
308,7442
309,7443
311,7444
314,7445
315,7446
316,7447
318,7448
319,7449
320,7450
317,7451
312,7452
307,7453
303,7454
299,7455
296,7456
294,7457
292,7458
293,7459
297,7460
299,7461
300,7462
300,7463
299,7464
297,7465
296,7467
299,7467
305,7468
312,7469
317,7470
322,7471
326,7472
328,7473
326,7474
321,7475
318,7476
315,7477
313,7478
312,7479
313,7480
314,7481
314,7482
314,7483
314,7484
312,7485
311,7486
309,7487
305,7488
300,7489
300,7490
300,7491
299,7492
297,7493
295,7494
295,7495
297,7496
304,7497
312,7498
319,7499
326,7500
329,7501
330,7502
329,7503
327,7504
326,7505
325,7506
321,7507
315,7508
312,7510
309,7511
305,7512
306,7513
308,7514
312,7515
317,7516
321,7517
326,7518
324,7518
320,7519
315,7520
310,7521
302,7522
299,7523
300,7524
304,7525
309,7526
314,7527
319,7528
320,7529
317,7530
312,7531
307,7532
305,7533
304,7534
303,7535
304,7536
304,7537
305,7538
306,7539
308,7540
308,7541
310,7542
312,7543
316,7544
322,7545
328,7546
333,7547
334,7548
330,7549
326,7550
319,7552
310,7553
305,7554
303,7555
303,7556
304,7557
306,7558
309,7559
311,7560
312,7561
313,7562
312,7563
311,7564
311,7565
311,7566
312,7567
311,7568
310,7569
310,7570
312,7570
315,7571
318,7572
321,7573
325,7574
326,7575
323,7576
316,7577
307,7578
299,7579
292,7580
287,7581
286,7582
286,7583
293,7584
302,7585
310,7586
317,7587
322,7588
324,7589
320,7590
314,7591
308,7592
305,7593
303,7595
302,7596
301,7597
302,7598
306,7599
310,7600
317,7601
322,7602
324,7603
324,7604
322,7605
319,7606
317,7607
314,7608
311,7609
308,7610
305,7611
304,7612
306,7613
308,7614
308,7615
308,7616
308,7617
308,7618
308,7619
307,7620
307,7621
308,7621
309,7622
310,7623
311,7624
311,7625
311,7626
312,7627
313,7628
314,7629
313,7630
311,7631
307,7632
304,7633
304,7634
307,7635
313,7636
321,7638
325,7639
325,7640
325,7641
324,7642
323,7643
324,7644
324,7645
324,7646
323,7647
320,7648
315,7649
310,7650
305,7651
302,7652
299,7653
298,7654
299,7655
302,7656
304,7657
307,7658
309,7659
312,7660
313,7661
315,7662
316,7663
315,7664
314,7665
314,7666
311,7667
306,7668
301,7669
294,7670
293,7671
295,7672
299,7673
304,7673
310,7674
315,7675
316,7676
316,7677
319,7678
321,7680
322,7681
322,7682
320,7683
319,7684
318,7685
318,7686
321,7687
325,7688
327,7689
327,7690
324,7691
318,7692
311,7693
306,7694
300,7695
295,7696
295,7697
297,7698
302,7699
311,7700
319,7701
325,7702
326,7703
325,7704
323,7705
319,7706
318,7707
316,7708
313,7709
312,7710
312,7711
311,7712
307,7713
304,7714
302,7715
301,7716
298,7717
299,7718
300,7719
300,7720
302,7721
307,7723
312,7724
318,7725
321,7726
324,7726
325,7727
324,7728
321,7729
319,7730
317,7731
315,7732
313,7733
312,7734
311,7735
311,7736
310,7737
312,7738
314,7739
318,7740
322,7741
327,7742
331,7743
334,7744
333,7745
329,7746
323,7747
318,7748
316,7749
316,7750
319,7751
320,7752
322,7753
328,7754
333,7755
336,7756
336,7757
332,7758
325,7759
317,7760
308,7761
302,7762
303,7763
312,7764
322,7766
330,7767
335,7768
338,7769
336,7770
329,7771
318,7772
307,7773
296,7774
292,7775
291,7776
293,7777
297,7777
306,7778
314,7779
320,7780
332,7781
339,7782
339,7783
336,7784
330,7785
317,7786
303,7787
293,7788
288,7789
286,7790
288,7791
290,7792
293,7793
299,7794
306,7795
312,7796
316,7797
316,7798
312,7799
306,7800
301,7801
304,7802
311,7803
315,7804
318,7805
319,7806
316,7808
309,7809
302,7810
300,7811
303,7812
310,7813
315,7814
317,7815
316,7816
313,7817
310,7818
307,7819
306,7820
305,7821
306,7822
305,7823
305,7824
308,7825
310,7826
312,7827
314,7828
315,7828
313,7829
313,7830
314,7831
313,7832
312,7833
315,7834
316,7835
317,7836
316,7837
314,7838
310,7839
304,7840
300,7841
296,7842
294,7843
295,7844
298,7845
302,7846
308,7847
310,7848
309,7849
311,7851
315,7852
321,7853
330,7854
341,7855
345,7856
341,7857
333,7858
321,7859
310,7860
303,7861
302,7862
306,7863
310,7864
314,7865
317,7866
319,7867
319,7868
315,7869
309,7870
304,7871
300,7872
301,7873
311,7874
319,7875
322,7876
323,7877
323,7878
324,7879
322,7880
319,7880
319,7881
324,7882
327,7883
325,7884
320,7885
315,7886
311,7887
306,7888
303,7889
301,7890
301,7891
301,7892
303,7894
304,7895
306,7896
308,7897
310,7898
314,7899
318,7900
323,7901
325,7902
325,7903
324,7904
320,7905
314,7906
309,7907
306,7908
303,7909
303,7910
303,7911
303,7912
303,7913
304,7914
308,7915
314,7916
318,7917
320,7918
322,7919
321,7920
320,7921
318,7922
316,7923
313,7924
311,7925
312,7926
316,7927
319,7928
320,7929
321,7930
321,7931
319,7931
315,7932
310,7933
309,7934
309,7936
309,7937
309,7938
309,7939
308,7940
305,7941
303,7942
301,7943
300,7944
299,7945
301,7946
303,7947
304,7948
304,7949
308,7950
313,7951
317,7952
321,7953
324,7954
326,7955
327,7956
325,7957
322,7958
319,7959
318,7960
319,7961
315,7962
314,7963
315,7964
313,7965
310,7966
305,7967
299,7968
295,7969
296,7970
298,7971
302,7972
304,7973
306,7974
310,7975
315,7976
317,7977
317,7979
318,7980
319,7981
319,7982
318,7983
316,7983
313,7984
311,7985
312,7986
312,7987
314,7988
317,7989
316,7990
315,7991
314,7992
319,7993
327,7994
334,7995
339,7996
341,7997
341,7998
335,7999
323,8000
310,8001
297,8002
290,8003
288,8004
287,8005
287,8006
292,8007
299,8008
308,8009
320,8010
331,8011
339,8012
345,8013
349,8014
350,8015
348,8016
342,8017
333,8018
324,8019
315,8020
307,8022
301,8023
299,8024
301,8025
306,8026
313,8027
317,8028
317,8029
317,8030
321,8031
325,8032
326,8033
327,8034
327,8035
325,8035
319,8036
313,8037
305,8038
300,8039
299,8040
301,8041
301,8042
302,8043
307,8044
312,8045
319,8046
323,8047
323,8048
321,8049
317,8050
313,8051
309,8052
306,8053
303,8054
299,8055
295,8056
292,8057
292,8058
292,8059
292,8060
293,8061
295,8062
296,8064
301,8065
307,8066
312,8067
316,8068
318,8069
317,8070
313,8071
307,8072
302,8073
296,8074
294,8075
295,8076
296,8077
297,8078
299,8079
300,8080
302,8081
308,8082
313,8083
318,8084
325,8085
334,8086
340,8086
342,8087
338,8088
332,8089
325,8090
317,8091
310,8092
304,8093
303,8094
304,8095
306,8096
309,8097
311,8098
310,8099
307,8100
303,8101
299,8102
295,8103
295,8104
296,8105
298,8107
304,8108
308,8109
311,8110
317,8111
323,8112
327,8113
329,8114
331,8115
331,8116
325,8117
320,8118
316,8119
313,8120
311,8121
313,8122
315,8123
320,8124
324,8125
327,8126
327,8127
324,8128
321,8129
314,8130
305,8131
297,8132
296,8133
298,8134
303,8135
311,8136
318,8137
323,8138
326,8138
325,8139
322,8140
320,8141
317,8142
311,8143
304,8144
300,8145
301,8146
301,8147
301,8148
302,8150
306,8151
311,8152
314,8153
313,8154
312,8155
310,8156
308,8157
306,8158
303,8159
301,8160
300,8161
304,8162
310,8163
316,8164
319,8165
320,8166
319,8167
313,8168
304,8169
299,8170
299,8171
298,8172
295,8173
293,8174
290,8175
289,8176
289,8177
291,8178
292,8179
296,8180
300,8181
303,8182
306,8183
307,8184
311,8185
317,8186
324,8187
331,8188
336,8189
336,8189
334,8190
329,8192
320,8193
313,8194
308,8195
308,8196
308,8197
307,8198
306,8199
303,8200
300,8201
297,8202
297,8203
297,8204
298,8205
302,8206
306,8207
310,8208
311,8209
311,8210
311,8211
313,8212
318,8213
323,8214
327,8215
330,8216
330,8217
327,8218
323,8219
319,8220
318,8221
317,8222
319,8223
318,8224
313,8225
308,8226
302,8227
296,8228
290,8229
286,8230
284,8231
284,8232
286,8233
288,8235
293,8236
300,8237
307,8238
315,8239
322,8240
327,8241
329,8242
329,8242
327,8243
324,8244
319,8245
316,8246
315,8247
319,8248
324,8249
323,8250
321,8251
317,8252
311,8253
304,8254
298,8255
292,8256
288,8257
289,8258
297,8259
305,8260
314,8261
320,8262
323,8263
323,8264
317,8265
309,8266
303,8267
296,8268
293,8269
294,8270
298,8271
303,8272
311,8273
320,8274
329,8275
335,8276
335,8278
330,8279
323,8280
316,8281
308,8282
303,8283
302,8284
302,8285
306,8286
310,8287
313,8288
315,8289
316,8290
316,8291
313,8292
310,8293
304,8293
298,8294
293,8295
291,8296
289,8297
288,8298
289,8299
291,8300
293,8301
297,8302
301,8303
307,8304
312,8305
316,8306
318,8307
319,8308
321,8309
322,8310
324,8311
328,8312
332,8313
333,8314
330,8315
323,8316
314,8317
308,8318
306,8320
306,8321
306,8322
307,8323
308,8324
307,8325
305,8326
305,8327
304,8328
305,8329
306,8330
308,8331
311,8332
312,8333
314,8334
317,8335
319,8336
318,8337
317,8338
316,8339
314,8340
314,8341
313,8342
312,8343
310,8344
309,8345
310,8345
313,8346
315,8347
318,8348
320,8349
320,8350
316,8351
308,8352
300,8353
294,8354
291,8355
292,8356
296,8357
301,8358
306,8359
309,8360
311,8361
311,8363
312,8364
313,8365
313,8366
313,8367
316,8368
318,8369
317,8370
317,8371
322,8372
329,8373
333,8374
339,8375
346,8376
346,8377
341,8378
331,8379
321,8380
314,8381
310,8382
307,8383
303,8384
300,8385
300,8386
298,8387
296,8388
295,8389
296,8390
299,8391
302,8392
307,8393
311,8394
312,8395
312,8396
311,8396
308,8397
306,8398
305,8399
305,8400
306,8401
306,8402
304,8403
310,8404
315,8406
320,8407
321,8408
322,8409
322,8410
320,8411
315,8412
310,8413
307,8414
306,8415
303,8416
302,8417
303,8418
307,8419
311,8420
313,8421
313,8422
312,8423
308,8424
305,8425
305,8426
308,8427
312,8428
319,8429
326,8430
330,8431
332,8432
332,8433
327,8434
321,8435
311,8436
300,8437
292,8438
292,8439
297,8440
303,8441
309,8442
314,8443
318,8444
320,8445
320,8446
318,8448
316,8448
313,8449
308,8450
304,8451
303,8452
305,8453
308,8454
314,8455
323,8456
329,8457
333,8458
333,8459
331,8460
330,8461
330,8462
328,8463
323,8464
320,8465
317,8466
313,8467
306,8468
300,8469
297,8470
297,8471
300,8472
302,8473
304,8474
305,8475
305,8476
306,8477
306,8478
303,8479
301,8480
300,8481
302,8482
307,8483
312,8484
318,8485
321,8486
321,8487
318,8488
315,8489
313,8491
313,8492
313,8493
314,8494
315,8495
315,8496
318,8497
321,8498
322,8499
319,8500
317,8500
317,8501
312,8502
307,8503
302,8504
300,8505
300,8506
300,8507
298,8508
299,8509
301,8510
302,8511
303,8512
305,8513
308,8514
310,8515
316,8516
322,8517
327,8518
329,8519
328,8520
323,8521
317,8522
310,8523
303,8524
299,8525
299,8526
301,8527
306,8528
317,8529
328,8530
338,8531
343,8532
343,8534
336,8535
324,8536
312,8537
304,8538
301,8539
300,8540
300,8541
302,8542
303,8543
305,8544
305,8545
307,8546
309,8547
312,8548
317,8549
322,8550
327,8551
330,8551
331,8552
332,8553
331,8554
326,8555
321,8556
318,8557
316,8558
312,8559
309,8560
310,8561
314,8562
317,8563
316,8564
313,8565
308,8566
304,8567
298,8568
294,8569
295,8570
299,8571
303,8572
305,8573
307,8574
308,8576
309,8577
307,8578
303,8579
299,8580
297,8581
296,8582
300,8583
307,8584
317,8585
325,8586
336,8587
350,8588
358,8589
361,8590
360,8591
355,8592
344,8593
328,8594
309,8595
300,8596
296,8597
296,8598
297,8599
297,8600
297,8601
296,8602
295,8603
294,8603
294,8604
294,8605
297,8606
304,8607
311,8608
317,8609
319,8610
318,8611
314,8612
309,8613
305,8614
307,8615
310,8616
313,8617
318,8619
323,8620
327,8621
330,8622
328,8623
324,8624
320,8625
315,8626
310,8627
303,8628
297,8629
293,8630
295,8631
298,8632
301,8633
304,8634
308,8635
309,8636
310,8637
312,8638
316,8639
320,8640
321,8641
320,8642
321,8643
325,8644
328,8645
332,8646
337,8647
341,8648
342,8649
339,8650
332,8651
324,8652
316,8653
308,8654
300,8654
292,8655
287,8656
286,8657
287,8658
291,8659
295,8660
298,8662
299,8663
299,8664
298,8665
298,8666
303,8667
310,8668
317,8669
320,8670
320,8671
319,8672
318,8673
317,8674
320,8675
325,8676
330,8677
333,8678
331,8679
327,8680
319,8681
317,8682
317,8683
318,8684
318,8685
317,8686
316,8687
312,8688
311,8689
312,8690
311,8691
310,8692
308,8693
305,8694
302,8695
302,8696
304,8697
305,8698
304,8699
302,8700
299,8701
298,8702
298,8704
299,8705
302,8706
307,8706
312,8707
315,8708
315,8709
312,8710
307,8711
309,8712
317,8713
329,8714
344,8715
353,8716
357,8717
353,8718
343,8719
331,8720
320,8721
310,8722
299,8723
292,8724
288,8725
286,8726
287,8727
291,8728
298,8729
308,8730
317,8731
321,8732
321,8733
319,8734
313,8735
308,8736
303,8737
301,8738
301,8739
308,8740
317,8741
326,8742
331,8743
332,8744
328,8745
323,8747
316,8748
309,8749
304,8750
302,8751
301,8752
303,8753
304,8754
305,8755
306,8756
306,8757
307,8758
305,8758
303,8759
300,8760
296,8761
293,8762
292,8763
295,8764
302,8765
310,8766
318,8767
324,8768
325,8769
324,8770
320,8771
314,8772
309,8773
307,8774
306,8775
304,8776
302,8777
301,8778
299,8779
300,8780
310,8781
323,8782
331,8783
336,8784
337,8785
332,8786
324,8787
313,8788
305,8790
301,8791
299,8792
300,8793
301,8794
302,8795
304,8796
306,8797
307,8798
307,8799
305,8800
304,8801
303,8802
303,8803
301,8804
301,8805
302,8806
307,8807
315,8808
325,8809
335,8809
342,8810
346,8811
346,8812
343,8813
338,8814
333,8815
327,8816
319,8817
313,8818
307,8819
304,8820
303,8821
302,8822
302,8823
302,8824
301,8825
301,8826
302,8827
304,8828
307,8829
311,8830
313,8832
313,8833
311,8834
307,8835
304,8836
306,8837
311,8838
317,8839
320,8840
321,8841
324,8842
331,8843
335,8844
335,8845
332,8846
327,8847
320,8848
310,8849
301,8850
298,8851
302,8852
306,8853
307,8854
307,8855
305,8856
301,8857
296,8858
293,8859
291,8860
290,8861
294,8861
299,8862
302,8863
304,8864
305,8865
304,8866
305,8867
308,8868
312,8869
314,8870
313,8871
315,8872
318,8873
329,8875
341,8876
351,8877
356,8878
355,8879
349,8880
338,8881
324,8882
310,8883
300,8884
298,8885
299,8886
299,8887
300,8888
304,8889
311,8890
314,8891
316,8892
318,8893
318,8894
317,8895
317,8896
317,8897
316,8898
315,8899
315,8900
313,8901
311,8902
314,8903
322,8904
330,8905
336,8906
340,8907
340,8908
335,8909
324,8910
311,8911
301,8912
294,8912
293,8913
295,8914
294,8915
292,8916
291,8918
290,8919
290,8920
295,8921
302,8922
311,8923
315,8924
316,8925
316,8926
313,8927
309,8928
306,8929
305,8930
302,8931
300,8932
299,8933
299,8934
300,8935
303,8936
305,8937
308,8938
309,8939
311,8940
314,8941
317,8942
319,8943
320,8944
323,8945
326,8946
328,8947
328,8948
325,8949
321,8950
314,8951
309,8952
306,8953
306,8954
306,8955
307,8956
307,8957
309,8958
310,8960
312,8961
315,8962
319,8963
322,8964
322,8964
322,8965
319,8966
315,8967
312,8968
308,8969
303,8970
300,8971
298,8972
299,8973
302,8974
308,8975
316,8976
326,8977
334,8978
342,8979
348,8980
348,8981
344,8982
337,8983
329,8984
323,8985
317,8986
312,8987
309,8988
306,8989
303,8990
299,8991
296,8992
293,8993
292,8994
291,8995
291,8996
292,8997
293,8998
296,8999
300,9000
303,9001
307,9003
311,9004
317,9005
321,9006
325,9007
326,9008
326,9009
324,9010
317,9011
310,9012
310,9013
320,9014
329,9015
334,9016
336,9016
335,9017
331,9018
324,9019
316,9020
310,9021
307,9022
306,9023
306,9024
305,9025
304,9026
302,9027
302,9028
303,9029
306,9030
310,9031
313,9032
314,9033
313,9034
311,9035
311,9036
316,9037
322,9038
330,9039
336,9040
340,9041
340,9042
337,9043
335,9044
332,9046
329,9047
327,9048
326,9049
324,9050
324,9051
322,9052
318,9053
314,9054
309,9055
303,9056
299,9057
296,9058
294,9059
293,9060
292,9061
291,9062
291,9063
292,9064
293,9065
298,9066
305,9067
311,9067
315,9068
317,9069
317,9070
314,9071
306,9072
298,9073
294,9074
290,9075
289,9076
292,9077
299,9078
309,9079
318,9080
325,9081
328,9082
328,9083
327,9084
323,9085
314,9086
306,9088
301,9089
298,9090
296,9091
294,9092
296,9093
300,9094
307,9095
316,9096
321,9097
325,9098
328,9099
329,9100
328,9101
326,9102
326,9103
327,9104
327,9105
327,9106
326,9107
328,9108
332,9109
336,9110
337,9111
335,9112
332,9113
328,9114
323,9115
318,9116
316,9117
314,9118
312,9119
311,9119
309,9120
306,9121
302,9122
298,9123
293,9124
288,9125
284,9126
281,9127
283,9128
291,9129
301,9131
309,9132
315,9133
318,9134
319,9135
317,9136
317,9137
316,9138
311,9139
308,9140
308,9141
312,9142
317,9143
321,9144
324,9145
324,9146
320,9147
314,9148
310,9149
309,9150
312,9151
314,9152
314,9153
312,9154
309,9155
305,9156
302,9157
300,9158
300,9159
300,9160
302,9161
301,9162
301,9163
303,9164
306,9165
309,9166
314,9167
317,9168
317,9169
313,9170
310,9170
309,9171
309,9172
308,9174
306,9175
307,9176
312,9177
319,9178
327,9179
335,9180
342,9181
349,9182
352,9183
350,9184
345,9185
340,9186
334,9187
327,9188
322,9189
319,9190
319,9191
321,9192
323,9193
323,9194
319,9195
313,9196
307,9197
302,9198
301,9199
301,9200
303,9201
303,9202
301,9203
297,9204
293,9205
291,9206
294,9207
302,9208
312,9209
323,9210
334,9211
345,9212
350,9213
350,9214
345,9216
339,9217
332,9218
325,9219
316,9220
308,9221
301,9222
295,9223
293,9223
294,9224
296,9225
302,9226
310,9227
315,9228
317,9229
313,9230
308,9231
300,9232
293,9233
290,9234
290,9235
293,9236
297,9237
299,9238
300,9239
302,9240
308,9241
315,9242
325,9243
332,9244
336,9245
335,9246
331,9247
326,9248
322,9249
318,9250
315,9251
316,9252
318,9253
319,9254
319,9255
315,9256
310,9257
302,9259
294,9260
293,9261
298,9262
305,9263
313,9264
322,9265
331,9266
334,9267
331,9268
325,9269
319,9270
315,9271
315,9272
315,9273
314,9274
314,9274
311,9275
308,9276
305,9277
303,9278
301,9279
297,9280
294,9281
294,9282
297,9283
301,9284
306,9285
313,9286
323,9287
333,9288
340,9289
341,9290
339,9291
333,9292
325,9293
316,9294
312,9295
313,9296
316,9297
317,9298
319,9299
321,9300
321,9302
319,9303
314,9304
308,9305
303,9306
297,9307
295,9308
294,9309
295,9310
296,9311
296,9312
297,9313
298,9314
300,9315
303,9316
303,9317
303,9318
302,9319
302,9320
306,9321
313,9322
323,9323
329,9324
331,9325
332,9325
334,9326
335,9327
334,9328
330,9329
325,9330
319,9331
311,9332
302,9333
297,9334
296,9335
297,9336
297,9337
297,9338
296,9339
296,9340
295,9341
296,9342
295,9344
294,9345
294,9346
293,9347
293,9348
294,9349
294,9350
294,9351
295,9352
296,9353
297,9354
297,9355
297,9356
297,9357
298,9358
301,9359
303,9360
304,9361
304,9362
303,9363
302,9364
304,9365
309,9366
315,9367
320,9368
323,9369
325,9370
325,9371
323,9372
319,9373
314,9374
309,9375
304,9376
303,9377
306,9377
311,9378
316,9379
318,9380
318,9381
317,9382
313,9383
306,9384
300,9385
298,9387
299,9388
302,9389
303,9390
303,9391
302,9392
300,9393
298,9394
297,9395
295,9396
295,9397
294,9398
294,9399
294,9400
294,9401
293,9402
293,9403
293,9404
293,9405
294,9406
296,9407
302,9408
313,9409
324,9410
332,9411
338,9412
341,9413
338,9414
334,9415
327,9416
320,9417
313,9418
308,9419
305,9420
302,9421
298,9422
297,9423
296,9424
295,9425
295,9426
295,9427
295,9428
294,9428
295,9430
295,9431
295,9432
294,9433
294,9434
295,9435
295,9436
295,9437
296,9438
297,9439
299,9440
300,9441
301,9442
302,9443
304,9444
306,9445
309,9446
312,9447
313,9448
315,9449
316,9450
316,9451
315,9452
313,9453
312,9454
314,9455
318,9456
321,9457
325,9458
327,9459
328,9460
328,9461
326,9462
324,9463
321,9464
318,9465
314,9466
311,9467
307,9468
305,9469
303,9470
303,9472
302,9473
302,9474
302,9475
301,9476
301,9477
300,9478
298,9479
297,9480
296,9480
295,9481
294,9482
294,9483
293,9484
294,9485
295,9486
296,9487
297,9488
299,9489
300,9490
300,9491
301,9492
300,9493
300,9494
300,9495
301,9496
301,9497
301,9498
301,9499
301,9500
300,9501
300,9502
300,9503
300,9504
300,9505
300,9506
299,9507
299,9508
299,9509
299,9510
299,9511
300,9512
300,9513
299,9515
299,9516
298,9517
298,9518
297,9519
297,9520
296,9521
297,9522
297,9523
299,9524
301,9525
304,9526
306,9527
308,9528
310,9529
312,9530
313,9531
313,9532
313,9532
311,9533
307,9534
304,9535
301,9536
300,9537
300,9538
301,9539
303,9540
305,9541
307,9542
308,9543
307,9544
306,9545
304,9546
301,9547
299,9548
296,9549
295,9550
293,9551
292,9552
292,9553
291,9554
292,9555
292,9556
293,9558
294,9559
295,9560
295,9561
296,9562
296,9563
296,9564
296,9565
296,9566
295,9567
295,9568
294,9569
294,9570
294,9571
294,9572
294,9573
294,9574
294,9575
294,9576
294,9577
294,9578
294,9579
294,9580
295,9581
295,9582
295,9583
295,9584
296,9584
296,9585
297,9586
298,9587
299,9588
300,9589
301,9590
302,9591
302,9592
302,9593
302,9594
302,9595
302,9596
301,9597
301,9598
300,9600
299,9601
299,9602
300,9603
301,9604
301,9605
303,9606
304,9607
304,9608
304,9609
304,9610
304,9611
303,9612
303,9613
302,9614
302,9615
301,9616
302,9617
301,9618
301,9619
301,9620
300,9621
300,9622
299,9623
298,9624
298,9625
298,9626
297,9627
297,9628
297,9629
297,9630
297,9631
298,9632
298,9633
298,9634
298,9635
299,9636
299,9637
300,9638
300,9638
300,9639
299,9640
299,9641
298,9643
298,9644
298,9645
298,9646
298,9647
297,9648
297,9649
297,9650
296,9651
296,9652
296,9653
296,9654
296,9655
296,9656
296,9657
296,9658
296,9659
296,9660
296,9661
296,9662
296,9663
297,9664
297,9665
297,9666
298,9667
299,9668
299,9669
300,9670
301,9671
301,9672
301,9673
301,9674
301,9675
301,9676
301,9677
301,9678
302,9679
302,9680
302,9681
302,9682
303,9683
304,9684
306,9686
308,9687
309,9688
309,9689
310,9690
309,9691
309,9691
308,9692
307,9693
306,9694
305,9695
304,9696
302,9697
301,9698
300,9699
300,9700
300,9701
299,9702
298,9703
298,9704
298,9705
298,9706
297,9707
297,9708
297,9709
297,9710
297,9711
297,9712
297,9713
297,9714
297,9715
297,9716
297,9717
297,9718
297,9719
298,9720
298,9721
298,9722
298,9723
298,9724
298,9725
298,9726
298,9728
298,9729
299,9730
299,9731
299,9732
299,9733
299,9734
299,9735
299,9736
299,9737
300,9738
300,9739
300,9740
300,9741
300,9742
300,9742
301,9743
301,9744
301,9745
301,9746
301,9747
301,9748
302,9749
302,9750
302,9751
303,9752
304,9753
306,9754
307,9755
307,9756
308,9757
308,9758
309,9759
309,9760
309,9761
309,9762
310,9763
311,9764
311,9765
312,9766
312,9767
312,9768
311,9769
310,9771
309,9772
308,9773
308,9774
309,9775
309,9776
310,9777
310,9778
311,9779
311,9780
312,9781
312,9782
311,9783
311,9784
310,9785
309,9786
309,9787
308,9788
308,9789
308,9790
308,9791
308,9792
307,9793
307,9793
307,9794
307,9795
306,9796
306,9797
306,9798
306,9799
305,9800
305,9801
305,9802
305,9803
305,9804
306,9805
305,9806
306,9807
305,9808
305,9809
306,9810
306,9811
306,9812
306,9814
306,9815
306,9816
306,9817
306,9818
307,9819
307,9820
307,9821
307,9822
307,9823
307,9824
307,9825
307,9826
307,9827
307,9828
308,9829
308,9830
308,9831
308,9832
308,9833
308,9834
308,9835
308,9836
308,9837
309,9838
310,9839
310,9840
311,9841
311,9842
312,9843
312,9844
312,9845
312,9845
312,9846
312,9847
313,9848
313,9849
314,9850
316,9851
317,9852
319,9853
320,9854
320,9856
321,9857
320,9858
320,9859
320,9860
319,9861
318,9862
317,9863
316,9864
314,9865
314,9866
313,9867
312,9868
311,9869
311,9870
311,9871
311,9872
311,9873
311,9874
312,9875
311,9876
312,9877
312,9878
312,9879
312,9880
312,9881
312,9882
312,9883
311,9884
311,9885
311,9886
311,9887
311,9888
311,9889
311,9890
310,9891
310,9892
311,9893
311,9894
311,9895
311,9896
311,9896
311,9897
311,9899
311,9900
312,9901
312,9902
312,9903
312,9904
312,9905
313,9906
313,9907
313,9908
313,9909
313,9910
313,9911
313,9912
313,9913
314,9914
314,9915
314,9916
314,9917
314,9918
314,9919
315,9920
315,9921
315,9922
315,9923
315,9924
316,9925
316,9926
316,9927
316,9928
316,9929
317,9930
317,9931
317,9932
317,9933
318,9934
318,9935
318,9936
318,9937
319,9938
319,9939
320,9940
320,9942
321,9943
321,9944
321,9945
321,9946
322,9947
322,9948
322,9949
322,9949
322,9950
322,9951
322,9952
321,9953
321,9954
321,9955
320,9956
320,9957
320,9958
320,9959
320,9960
319,9961
319,9962
319,9963
319,9964
318,9965
318,9966
317,9967
317,9968
317,9969
317,9970
316,9971
316,9972
316,9973
315,9974
315,9975
315,9976
315,9977
315,9978
315,9979
315,9980
314,9981
315,9982
314,9984
314,9985
314,9986
314,9987
314,9988
314,9989
314,9990
313,9991
314,9992
313,9993
314,9994
313,9995
313,9996
313,9997
313,9998
313,9999
313,10000
313,10000
313,10001
313,10002
313,10003
313,10004
313,10005
313,10006
313,10007
313,10008
313,10009
313,10010
313,10011
313,10012
313,10013
313,10014
313,10015
313,10016
313,10017
313,10018
313,10019
313,10020
313,10021
313,10022
313,10023
313,10024
313,10025
313,10027
313,10028
313,10029
313,10030
313,10031
313,10032
314,10033
314,10034
315,10035
315,10036
316,10037
316,10038
317,10039
316,10040
317,10041
317,10042
317,10043
317,10044
316,10045
316,10046
316,10047
315,10048
316,10049
315,10050
315,10051
315,10052
314,10052
314,10053
314,10054
314,10055
314,10056
315,10057
315,10058
316,10059
316,10060
317,10061
317,10062
317,10063
318,10064
318,10065
318,10066
318,10067
318,10068
317,10070
317,10071
317,10072
317,10073
317,10074
317,10075
316,10076
316,10077
316,10078
316,10079
316,10080
316,10081
316,10082
316,10083
316,10084
316,10085
316,10086
316,10087
316,10088
316,10089
316,10090
316,10091
316,10092
316,10093
316,10094
316,10095
316,10096
316,10097
317,10098
317,10099
317,10100
317,10101
317,10102
317,10103
317,10103
317,10104
317,10105
317,10106
318,10107
317,10108
318,10109
318,10110
318,10112
318,10113
318,10114
318,10115
318,10116
318,10117
318,10118
318,10119
318,10120
318,10121
318,10122
318,10123
318,10124
318,10125
319,10126
319,10127
319,10128
318,10129
319,10130
319,10131
319,10132
319,10133
319,10134
319,10135
319,10136
320,10137
320,10138
320,10139
320,10140
321,10141
321,10142
321,10143
321,10144
321,10145
321,10146
321,10147
321,10148
321,10149
321,10150
322,10151
321,10152
321,10153
321,10155
321,10155
321,10156
321,10157
321,10158
320,10159
320,10160
321,10161
320,10162
321,10163
321,10164
321,10165
321,10166
321,10167
321,10168
321,10169
321,10170
321,10171
321,10172
321,10173
321,10174
321,10175
321,10176
321,10177
321,10178
321,10179
321,10180
321,10181
321,10182
321,10183
321,10184
321,10185
321,10186
321,10187
321,10188
321,10189
321,10190
321,10191
321,10192
321,10193
321,10194
321,10195
321,10196
321,10198
321,10199
322,10200
321,10201
321,10202
322,10203
322,10204
322,10205
322,10206
322,10207
322,10207
322,10208
322,10209
322,10210
321,10211
322,10212
321,10213
322,10214
322,10215
322,10216
322,10217
322,10218
322,10219
322,10220
322,10221
322,10222
322,10223
322,10224
322,10225
322,10226
322,10227
322,10228
322,10229
322,10230
322,10231
322,10232
322,10233
322,10234
322,10235
322,10236
322,10237
322,10238
322,10240
322,10241
322,10242
323,10243
323,10244
323,10245
323,10246
323,10247
323,10248
322,10249
322,10250
322,10251
322,10252
322,10253
322,10254
322,10255
322,10256
322,10257
322,10258
323,10258
323,10259
323,10260
323,10261
322,10262
323,10263
323,10264
323,10265
323,10266
324,10267
324,10268
324,10269
323,10270
323,10271
323,10272
323,10273
323,10274
323,10275
323,10276
323,10277
323,10278
323,10279
323,10280
323,10281
323,10283
323,10284
323,10285
323,10286
323,10287
322,10288
322,10289
322,10290
322,10291
322,10292
322,10293
322,10294
322,10295
322,10296
322,10297
322,10298
322,10299
322,10300
322,10301
323,10302
323,10303
323,10304
323,10305
323,10306
323,10307
323,10308
322,10309
322,10310
322,10310
322,10311
322,10312
322,10313
322,10314
322,10315
322,10316
322,10317
322,10318
322,10319
322,10320
323,10321
322,10322
322,10323
322,10324
323,10326
322,10327
322,10328
322,10329
322,10330
322,10331
322,10332
322,10333
322,10334
322,10335
322,10336
322,10337
322,10338
322,10339
322,10340
322,10341
322,10342
322,10343
322,10344
322,10345
322,10346
322,10347
322,10348
322,10349
322,10350
322,10351
322,10352
322,10353
321,10354
322,10355
322,10356
322,10357
322,10358
322,10359
322,10360
322,10361
322,10362
322,10363
322,10363
322,10364
322,10365
322,10366
322,10368
322,10369
322,10370
322,10371
322,10372
322,10373
322,10374
322,10375
321,10376
322,10377
322,10378
322,10379
322,10380
322,10381
321,10382
322,10383
322,10384
322,10385
322,10386
321,10387
322,10388
321,10389
321,10390
321,10391
321,10392
321,10393
321,10394
321,10395
321,10396
321,10397
321,10398
321,10399
321,10400
321,10401
321,10402
321,10403
321,10404
321,10405
321,10406
321,10407
321,10408
321,10409
321,10411
321,10412
321,10413
321,10414
321,10415
321,10416
321,10416
321,10417
321,10418
321,10419
321,10420
321,10421
321,10422
321,10423
321,10424
321,10425
322,10426
321,10427
321,10428
321,10429
321,10430
321,10431
321,10432
321,10433
321,10434
321,10435
321,10436
321,10437
321,10438
321,10439
321,10440
321,10441
321,10442
321,10443
321,10444
321,10445
321,10446
321,10447
321,10448
321,10449
321,10450
321,10451
321,10452
321,10454
321,10455
321,10456
322,10457
321,10458
321,10459
321,10460
322,10461
322,10462
322,10463
322,10464
322,10465
322,10466
322,10467
322,10467
322,10468
322,10469
322,10470
322,10471
322,10472
322,10473
322,10474
322,10475
322,10476
322,10477
322,10478
322,10479
322,10480
322,10481
322,10482
322,10483
322,10484
322,10485
322,10486
322,10487
322,10488
321,10489
322,10490
322,10491
321,10492
321,10493
321,10494
321,10496
321,10497
322,10498
322,10499
322,10500
322,10501
322,10502
322,10503
321,10504
322,10505
322,10506
322,10507
321,10508
322,10509
322,10510
322,10511
321,10512
321,10513
321,10514
321,10515
321,10516
321,10517
321,10518
321,10519
321,10520
321,10520
321,10521
322,10522
322,10523
322,10524
322,10525
322,10526
322,10527
322,10528
322,10529
322,10530
322,10531
322,10532
322,10533
322,10534
322,10535
322,10536
322,10537
322,10539
322,10540
322,10541
322,10542
322,10543
322,10544
322,10545
322,10546
322,10547
322,10548
323,10549
322,10550
323,10551
322,10552
322,10553
322,10554
322,10555
322,10556
322,10557
322,10558
322,10559
322,10560
323,10561
323,10562
322,10563
322,10564
322,10565
322,10566
322,10567
322,10568
322,10569
322,10570
322,10571
322,10571
322,10572
322,10573
322,10574
322,10575
322,10576
322,10577
322,10578
322,10579
322,10580
322,10582
322,10583
322,10584
322,10585
322,10586
322,10587
322,10588
322,10589
322,10590
322,10591
322,10592
322,10593
322,10594
322,10595
322,10596
322,10597
322,10598
322,10599
322,10600
322,10601
322,10602
322,10603
322,10604
322,10605
322,10606
322,10607
322,10608
322,10609
321,10610
321,10611
321,10612
321,10613
321,10614
321,10615
321,10616
321,10617
321,10618
321,10619
321,10620
321,10621
321,10622
321,10624
321,10625
321,10625
321,10626
321,10627
321,10628
321,10629
321,10630
321,10631
321,10632
320,10633
321,10634
320,10635
320,10636
320,10637
320,10638
321,10639
321,10640
321,10641
321,10642
321,10643
320,10644
320,10645
320,10646
320,10647
320,10648
320,10649
320,10650
320,10651
320,10652
320,10653
319,10654
319,10655
319,10656
319,10657
320,10658
320,10659
320,10660
320,10661
320,10662
320,10663
320,10664
320,10665
320,10667
320,10668
320,10669
319,10670
319,10671
319,10672
319,10673
319,10674
319,10675
319,10676
319,10677
319,10678
319,10678
319,10679
319,10680
319,10681
319,10682
319,10683
319,10684
319,10685
319,10686
319,10687
319,10688
318,10689
318,10690
318,10691
318,10692
318,10693
318,10694
318,10695
318,10696
318,10697
318,10698
318,10699
318,10700
318,10701
318,10702
318,10703
318,10704
317,10705
318,10706
317,10707
317,10708
317,10710
317,10711
317,10712
317,10713
317,10714
317,10715
317,10716
317,10717
317,10718
317,10719
317,10720
317,10721
317,10722
317,10723
317,10724
317,10725
317,10726
317,10727
317,10728
317,10729
317,10729
317,10730
317,10731
316,10732
316,10733
316,10734
316,10735
316,10736
316,10737
316,10738
316,10739
316,10740
317,10741
317,10742
317,10743
317,10744
317,10745
317,10746
317,10747
317,10748
317,10749
317,10750
317,10752
317,10753
317,10754
316,10755
316,10756
316,10757
316,10758
316,10759
317,10760
316,10761
317,10762
317,10763
316,10764
316,10765
316,10766
316,10767
316,10768
316,10769
316,10770
316,10771
316,10772
316,10773
316,10774
316,10775
316,10776
316,10777
316,10778
316,10779
316,10780
316,10781
316,10781
316,10782
316,10783
316,10784
316,10785
316,10786
316,10787
315,10788
315,10789
315,10790
315,10791
315,10792
315,10793
315,10795
315,10796
315,10797
315,10798
315,10799
315,10800
315,10801
315,10802
315,10803
315,10804
315,10805
315,10806
315,10807
315,10808
315,10809
315,10810
315,10811
315,10812
315,10813
315,10814
315,10815
315,10816
315,10817
315,10818
315,10819
315,10820
315,10821
315,10822
315,10823
315,10824
315,10825
315,10826
315,10827
315,10828
315,10829
315,10830
315,10831
315,10832
315,10832
315,10833
315,10834
315,10835
315,10836
315,10838
315,10839
315,10840
315,10841
315,10842
315,10843
315,10844
315,10845
315,10846
315,10847
315,10848
315,10849
314,10850
314,10851
314,10852
314,10853
314,10854
314,10855
314,10856
314,10857
314,10858
314,10859
314,10860
314,10861
314,10862
314,10863
314,10864
314,10865
314,10866
314,10867
314,10868
314,10869
314,10870
314,10871
314,10872
314,10873
314,10874
314,10875
313,10876
314,10877
314,10878
314,10880
314,10881
314,10882
314,10883
314,10884
314,10884
314,10885
314,10886
314,10887
314,10888
314,10889
314,10890
314,10891
314,10892
314,10893
313,10894
314,10895
313,10896
314,10897
313,10898
313,10899
314,10900
314,10901
313,10902
313,10903
314,10904
314,10905
314,10906
313,10907
314,10908
313,10909
314,10910
313,10911
314,10912
313,10913
313,10914
313,10915
313,10916
313,10917
313,10918
313,10919
314,10920
314,10921
314,10923
314,10924
314,10925
314,10926
314,10927
314,10928
313,10929
313,10930
313,10931
313,10932
313,10933
313,10934
313,10935
313,10936
313,10936
313,10937
313,10938
313,10939
313,10940
313,10941
313,10942
313,10943
313,10944
313,10945
314,10946
313,10947
313,10948
313,10949
313,10950
313,10951
313,10952
313,10953
313,10954
313,10955
313,10956
313,10957
313,10958
313,10959
313,10960
313,10961
313,10962
313,10963
313,10964
313,10966
313,10967
313,10968
313,10969
313,10970
313,10971
313,10972
313,10973
313,10974
312,10975
312,10976
312,10977
312,10978
312,10979
313,10980
313,10981
313,10982
313,10983
313,10984
313,10985
313,10986
313,10987
313,10987
313,10988
313,10989
313,10990
313,10991
313,10992
312,10993
313,10994
313,10995
313,10996
313,10997
313,10998
313,10999
313,11000
313,11001
313,11002
313,11003
313,11004
313,11005
313,11006
313,11008
313,11009
313,11010
313,11011
313,11012
313,11013
313,11014
313,11015
313,11016
313,11017
313,11018
313,11019
313,11020
313,11021
313,11022
313,11023
313,11024
313,11025
313,11026
313,11027
313,11028
313,11029
313,11030
313,11031
313,11032
313,11033
313,11034
313,11035
313,11036
313,11037
313,11038
312,11038
313,11039
313,11040
313,11041
313,11042
313,11043
313,11044
313,11045
313,11046
313,11047
313,11048
313,11049
313,11051
312,11052
312,11053
312,11054
313,11055
312,11056
312,11057
312,11058
312,11059
312,11060
313,11061
313,11062
313,11063
313,11064
313,11065
313,11066
313,11067
313,11068
313,11069
313,11070
313,11071
312,11072
312,11073
312,11074
312,11075
312,11076
312,11077
312,11078
312,11079
312,11080
312,11081
312,11082
313,11083
313,11084
313,11085
313,11086
313,11087
313,11088
312,11089
313,11090
312,11090
313,11091
312,11092
312,11094
312,11095
312,11096
312,11097
312,11098
312,11099
312,11100
312,11101
313,11102
312,11103
313,11104
313,11105
313,11106
313,11107
313,11108
313,11109
313,11110
313,11111
313,11112
312,11113
312,11114
312,11115
312,11116
312,11117
312,11118
312,11119
312,11120
312,11121
312,11122
313,11123
313,11124
313,11125
313,11126
313,11127
313,11128
313,11129
313,11130
313,11131
312,11132
312,11133
312,11134
312,11136
311,11137
312,11138
311,11139
312,11140
312,11141
312,11142
313,11142
313,11143
313,11144
313,11145
313,11146
313,11147
313,11148
313,11149
313,11150
313,11151
313,11152
313,11153
312,11154
312,11155
313,11156
312,11157
312,11158
312,11159
312,11160
313,11161
313,11162
313,11163
313,11164
313,11165
313,11166
313,11167
313,11168
313,11169
313,11170
313,11171
312,11172
312,11173
312,11174
312,11175
312,11176
313,11177
312,11179
313,11180
312,11181
313,11182
313,11183
313,11184
313,11185
313,11186
313,11187
313,11188
313,11189
313,11190
313,11191
312,11192
312,11193
313,11193
312,11194
312,11195
312,11196
312,11197
312,11198
312,11199
312,11200
313,11201
313,11202
313,11203
313,11204
313,11205
313,11206
313,11207
313,11208
313,11209
313,11210
313,11211
312,11212
312,11213
312,11214
312,11215
312,11216
312,11217
312,11218
313,11219
313,11220
313,11222
313,11223
313,11224
313,11225
313,11226
313,11227
313,11228
313,11229
313,11230
313,11231
313,11232
313,11233
312,11234
312,11235
312,11236
312,11237
312,11238
312,11239
312,11240
312,11241
312,11242
312,11243
312,11244
312,11245
312,11245
312,11246
313,11247
312,11248
313,11249
313,11250
313,11251
313,11252
313,11253
312,11254
312,11255
312,11256
312,11257
312,11258
312,11259
313,11260
313,11261
313,11262
313,11264
313,11265
313,11266
313,11267
313,11268
313,11269
313,11270
313,11271
313,11272
312,11273
312,11274
313,11275
313,11276
312,11277
312,11278
312,11279
313,11280
312,11281
313,11282
313,11283
313,11284
313,11285
313,11286
313,11287
313,11288
313,11289
313,11290
313,11291
313,11292
313,11293
312,11294
312,11295
312,11296
312,11296
312,11297
312,11298
313,11299
313,11300
313,11301
313,11302
313,11303
313,11304
313,11305
313,11307
313,11308
313,11309
313,11310
313,11311
313,11312
313,11313
313,11314
313,11315
313,11316
313,11317
313,11318
313,11319
313,11320
313,11321
313,11322
313,11323
313,11324
313,11325
313,11326
313,11327
313,11328
313,11329
313,11330
313,11331
313,11332
313,11333
313,11334
312,11335
312,11336
312,11337
312,11338
312,11339
312,11340
312,11341
312,11342
312,11343
313,11344
313,11345
313,11346
313,11347
313,11347
313,11348
313,11350
313,11351
313,11352
313,11353
312,11354
312,11355
312,11356
312,11357
312,11358
312,11359
312,11360
312,11361
313,11362
312,11363
312,11364
313,11365
313,11366
313,11367
313,11368
313,11369
313,11370
312,11371
312,11372
312,11373
312,11374
312,11375
312,11376
312,11377
312,11378
312,11379
312,11380
312,11381
312,11382
312,11383
312,11384
312,11385
312,11386
312,11387
312,11388
312,11389
312,11390
312,11392
311,11393
311,11394
311,11395
311,11396
311,11397
312,11398
312,11399
312,11400
311,11400
312,11401
312,11402
312,11403
312,11404
312,11405
312,11406
312,11407
312,11408
312,11409
312,11410
312,11411
312,11412
311,11413
311,11414
311,11415
311,11416
311,11417
311,11418
311,11419
311,11420
312,11421
312,11422
312,11423
312,11424
312,11425
312,11426
312,11427
312,11428
312,11429
311,11430
312,11431
311,11432
311,11433
311,11435
311,11436
311,11437
311,11438
311,11439
311,11440
311,11441
311,11442
311,11443
311,11444
311,11445
311,11446
311,11447
311,11448
311,11449
311,11450
311,11451
311,11451
311,11452
311,11453
311,11454
311,11455
311,11456
311,11457
311,11458
311,11459
311,11460
311,11461
311,11462
311,11463
311,11464
311,11465
311,11466
311,11467
311,11468
311,11469
311,11470
311,11471
311,11472
310,11473
310,11474
311,11475
310,11476
310,11478
310,11479
310,11480
310,11481
310,11482
311,11483
311,11484
311,11485
311,11486
311,11487
311,11488
311,11489
311,11490
311,11491
311,11492
310,11493
310,11494
310,11495
310,11496
310,11497
310,11498
310,11499
310,11500
310,11501
310,11502
311,11502
311,11503
311,11504
311,11505
311,11506
311,11507
311,11508
310,11509
310,11510
310,11511
310,11512
310,11513
310,11514
310,11515
310,11516
310,11517
310,11518
310,11520
310,11521
310,11522
310,11523
310,11524
310,11525
310,11526
310,11527
310,11528
310,11529
310,11530
310,11531
310,11532
310,11533
310,11534
310,11535
309,11536
309,11537
309,11538
309,11539
309,11540
310,11541
310,11542
310,11543
310,11544
310,11545
310,11546
310,11547
310,11548
310,11549
310,11550
309,11551
309,11552
309,11553
309,11554
309,11554
309,11555
309,11556
309,11557
309,11558
309,11559
309,11560
310,11561
310,11563
309,11564
310,11565
310,11566
310,11567
310,11568
310,11569
310,11570
310,11571
309,11572
309,11573
309,11574
309,11575
309,11576
309,11577
309,11578
309,11579
309,11580
309,11581
309,11582
309,11583
309,11584
309,11585
309,11586
309,11587
309,11588
309,11589
309,11590
309,11591
309,11592
309,11593
309,11594
308,11595
308,11596
308,11597
308,11598
308,11599
308,11600
308,11601
309,11602
309,11603
309,11604
309,11606
309,11606
309,11607
309,11608
309,11609
309,11610
308,11611
308,11612
308,11613
308,11614
308,11615
308,11616
308,11617
308,11618
308,11619
308,11620
308,11621
308,11622
308,11623
308,11624
308,11625
309,11626
308,11627
309,11628
308,11629
308,11630
308,11631
308,11632
308,11633
308,11634
308,11635
308,11636
308,11637
308,11638
308,11639
308,11640
308,11641
308,11642
308,11643
308,11644
308,11645
308,11646
308,11648
308,11649
308,11650
308,11651
308,11652
308,11653
307,11654
307,11655
307,11656
307,11657
307,11657
307,11658
307,11659
307,11660
307,11661
308,11662
308,11663
308,11664
308,11665
308,11666
308,11667
308,11668
308,11669
307,11670
307,11671
307,11672
307,11673
307,11674
307,11675
307,11676
307,11677
307,11678
307,11679
307,11680
307,11681
307,11682
307,11683
308,11684
308,11685
308,11686
308,11687
308,11688
308,11689
308,11691
307,11692
307,11693
307,11694
307,11695
307,11696
307,11697
307,11698
307,11699
307,11700
308,11701
308,11702
308,11703
308,11704
308,11705
308,11706
308,11707
308,11708
308,11709
308,11709
308,11710
308,11711
309,11712
308,11713
308,11714
308,11715
308,11716
308,11717
308,11718
307,11719
307,11720
308,11721
308,11722
308,11723
308,11724
308,11725
308,11726
308,11727
308,11728
308,11729
308,11730
308,11731
308,11732
307,11734
307,11735
307,11736
307,11737
307,11738
307,11739
307,11740
307,11741
308,11742
308,11743
308,11744
308,11745
308,11746
308,11747
308,11748
308,11749
308,11750
308,11751
308,11752
308,11753
308,11754
308,11755
308,11756
308,11757
307,11758
308,11759
308,11760
308,11760
308,11761
308,11762
308,11763
308,11764
308,11765
308,11766
309,11767
309,11768
309,11769
308,11770
308,11771
309,11772
308,11773
308,11774
308,11776
308,11777
308,11778
308,11779
308,11780
308,11781
309,11782
309,11783
309,11784
309,11785
309,11786
309,11787
309,11788
309,11789
309,11790
309,11791
309,11792
309,11793
309,11794
309,11795
308,11796
308,11797
308,11798
308,11799
309,11800
308,11801
309,11802
309,11803
309,11804
309,11805
310,11806
310,11807
310,11808
310,11809
309,11810
309,11811
309,11811
309,11812
309,11813
309,11814
309,11815
309,11816
309,11817
309,11819
309,11820
309,11821
309,11822
310,11823
310,11824
310,11825
310,11826
310,11827
310,11828
310,11829
310,11830
310,11831
309,11832
309,11833
309,11834
309,11835
309,11836
309,11837
309,11838
309,11839
309,11840
309,11841
309,11842
309,11843
309,11844
309,11845
310,11846
310,11847
310,11848
310,11849
310,11850
310,11851
309,11852
309,11853
309,11854
309,11855
309,11856
309,11857
309,11858
309,11859
309,11860
309,11862
310,11863
310,11864
310,11864
310,11865
311,11866
310,11867
310,11868
310,11869
310,11870
310,11871
310,11872
310,11873
310,11874
310,11875
310,11876
310,11877
310,11878
310,11879
310,11880
310,11881
310,11882
311,11883
311,11884
311,11885
311,11886
311,11887
311,11888
311,11889
311,11890
311,11891
311,11892
311,11893
310,11894
310,11895
310,11896
310,11897
310,11898
310,11899
310,11900
311,11901
311,11902
311,11904
311,11905
311,11906
312,11907
312,11908
312,11909
312,11910
312,11911
311,11912
311,11913
311,11914
311,11915
311,11915
311,11916
310,11917
310,11918
311,11919
311,11920
311,11921
311,11922
311,11923
312,11924
312,11925
312,11926
312,11927
312,11928
312,11929
312,11930
312,11931
312,11932
312,11933
311,11934
311,11935
311,11936
311,11937
311,11938
311,11939
312,11940
312,11941
312,11942
312,11943
313,11944
313,11945
313,11947
313,11948
313,11949
313,11950
313,11951
313,11952
313,11953
312,11954
312,11955
312,11956
312,11957
312,11958
312,11959
312,11960
312,11961
312,11962
313,11963
313,11964
313,11965
313,11966
314,11966
314,11967
314,11968
314,11969
313,11970
313,11971
313,11972
313,11973
313,11974
313,11975
312,11976
312,11977
312,11978
312,11979
313,11980
313,11981
313,11982
313,11983
313,11984
314,11985
314,11986
314,11987
314,11988
314,11990
314,11991
313,11992
313,11993
313,11994
312,11995
312,11996
312,11997
312,11998
312,11999
312,12000
312,12001
311,12002
312,12003
312,12004
312,12005
312,12006
312,12007
312,12008
312,12009
312,12010
312,12011
312,12012
311,12013
311,12014
311,12015
311,12016
310,12017
310,12018
310,12018
310,12019
310,12020
310,12021
311,12022
311,12023
311,12024
311,12025
311,12026
311,12027
311,12028
311,12029
311,12030
311,12032
311,12033
311,12034
311,12035
311,12036
311,12037
310,12038
311,12039
311,12040
311,12041
311,12042
311,12043
311,12044
312,12045
312,12046
312,12047
312,12048
312,12049
312,12050
312,12051
311,12052
311,12053
311,12054
311,12055
311,12056
311,12057
311,12058
311,12059
311,12060
311,12061
311,12062
312,12063
312,12064
312,12065
312,12066
312,12067
312,12068
312,12069
312,12069
312,12070
312,12071
311,12072
311,12073
311,12075
311,12076
311,12077
311,12078
311,12079
311,12080
311,12081
312,12082
312,12083
313,12084
313,12085
313,12086
313,12087
313,12088
313,12089
312,12090
312,12091
312,12092
312,12093
312,12094
311,12095
311,12096
311,12097
311,12098
311,12099
311,12100
311,12101
312,12102
312,12103
312,12104
312,12105
313,12106
313,12107
313,12108
313,12109
313,12110
313,12111
313,12112
312,12113
312,12114
312,12115
312,12116
312,12118
311,12119
311,12120
311,12121
311,12121
311,12122
312,12123
312,12124
312,12125
312,12126
312,12127
312,12128
312,12129
312,12130
311,12131
311,12132
311,12133
311,12134
311,12135
310,12136
310,12137
310,12138
310,12139
310,12140
310,12141
311,12142
311,12143
311,12144
311,12145
312,12146
312,12147
311,12148
312,12149
312,12150
311,12151
311,12152
311,12153
311,12154
311,12155
311,12156
311,12157
311,12158
311,12160
311,12161
311,12162
311,12163
311,12164
312,12165
312,12166
312,12167
312,12168
312