1597	2
1597	5
1597	7
1597	9
1599	11
1601	14
1603	16
1602	18
1600	20
1598	23
1597	25
1596	27
1596	30
1597	32
1600	34
1602	36
1604	39
1603	41
1601	44
1598	47
1595	49
1594	51
1593	53
1593	56
1592	58
1594	60
1597	63
1598	65
1598	67
1594	70
1591	72
1591	74
1590	76
1590	79
1589	81
1590	83
1590	87
1592	89
1594	91
1596	93
1598	96
1596	98
1594	100
1593	103
1591	105
1591	107
1590	110
1590	112
1589	114
1589	117
1589	119
1589	121
1588	124
1588	126
1589	129
1590	132
1592	134
1592	136
1592	139
1591	141
1591	144
1591	146
1591	148
1591	151
1590	153
1589	155
1590	158
1591	160
1590	162
1590	165
1590	167
1592	169
1593	173
1592	175
1591	177
1590	180
1589	182
1589	184
1589	187
1589	189
1588	191
1586	194
1584	196
1582	198
1581	201
1580	203
1580	205
1581	208
1581	210
1581	212
1583	216
1584	218
1585	221
1585	223
1584	225
1582	228
1580	230
1579	232
1580	235
1581	237
1582	239
1582	242
1581	244
1580	246
1579	249
1578	251
1577	253
1576	257
1575	259
1574	261
1574	264
1575	266
1575	268
1574	271
1573	273
1571	275
1570	278
1569	280
1569	282
1570	285
1571	287
1572	290
1573	292
1575	294
1577	297
1577	300
1577	302
1574	305
1571	307
1569	309
1567	312
1565	314
1565	316
1565	319
1564	321
1563	323
1562	326
1562	328
1563	330
1564	333
1564	335
1564	337
1562	340
1559	343
1560	345
1564	348
1566	350
1566	352
1562	355
1558	357
1556	360
1555	362
1555	364
1556	367
1557	369
1558	371
1557	374
1556	376
1553	378
1553	381
1553	384
1553	386
1554	389
1554	391
1554	393
1554	396
1554	398
1555	400
1554	403
1553	405
1552	407
1553	410
1556	412
1559	414
1560	417
1561	419
1561	421
1562	424
1562	427
1562	430
1561	432
1558	434
1557	437
1555	439
1555	441
1555	444
1556	446
1556	448
1556	451
1555	453
1554	455
1553	458
1553	460
1551	462
1551	465
1552	467
1553	470
1553	473
1553	475
1553	477
1553	480
1553	482
1554	484
1555	487
1555	489
1555	491
1554	494
1554	496
1554	499
1555	501
1555	503
1555	506
1554	508
1554	510
1553	514
1552	516
1552	518
1552	521
1552	523
1551	525
1551	528
1551	530
1551	532
1552	535
1554	537
1556	539
1557	542
1557	544
1556	546
1554	549
1554	551
1553	553
1552	557
1552	559
1552	561
1551	564
1551	566
1550	568
1551	571
1551	573
1551	576
1553	578
1554	580
1555	583
1556	585
1555	587
1554	590
1553	592
1552	594
1552	598
1552	600
1553	602
1553	605
1552	607
1552	609
1551	612
1550	614
1551	616
1551	619
1552	621
1552	623
1552	626
1552	628
1552	630
1552	633
1552	635
1550	637
1549	641
1548	643
1548	646
1547	648
1548	650
1548	653
1549	655
1552	657
1555	660
1557	662
1556	664
1554	667
1553	669
1552	671
1551	674
1550	676
1547	678
1546	681
1545	684
1545	686
1545	689
1545	691
1544	693
1541	696
1539	698
1539	700
1540	703
1541	705
1541	707
1542	710
1542	712
1542	715
1542	717
1543	719
1545	722
1549	724
1551	727
1553	730
1550	732
1548	734
1545	737
1543	739
1542	741
1541	744
1541	746
1542	748
1541	751
1539	753
1536	755
1535	758
1536	760
1537	762
1539	765
1540	768
1540	770
1541	773
1542	775
1543	777
1544	780
1545	782
1544	785
1542	787
1541	789
1540	792
1540	794
1541	796
1543	799
1545	801
1546	803
1545	806
1542	808
1541	811
1539	814
1538	816
1537	818
1538	821
1539	823
1541	825
1541	828
1540	830
1540	832
1539	835
1539	837
1538	839
1537	842
1537	844
1537	846
1539	849
1540	851
1541	855
1545	857
1546	859
1544	862
1540	864
1538	866
1538	869
1537	871
1536	873
1536	876
1537	878
1537	880
1539	883
1539	885
1537	887
1537	890
1537	892
1536	894
1536	898
1537	900
1538	902
1539	905
1539	907
1538	909
1538	912
1538	914
1539	916
1539	919
1540	921
1540	924
1541	926
1540	928
1539	931
1537	933
1535	935
1535	939
1535	941
1536	943
1537	946
1538	948
1537	950
1537	953
1537	955
1537	957
1534	960
1533	962
1532	964
1532	967
1532	969
1533	971
1534	974
1536	976
1538	978
1540	982
1539	984
1535	986
1532	989
1532	991
1533	994
1533	996
1534	998
1536	1001
1537	1003
1537	1005
1536	1008
1535	1010
1533	1013
1532	1015
1531	1017
1531	1020
1532	1022
1532	1025
1532	1028
1532	1030
1531	1033
1530	1035
1530	1037
1531	1040
1532	1042
1532	1045
1533	1047
1533	1049
1533	1052
1533	1054
1531	1057
1530	1059
1532	1061
1534	1064
1534	1067
1534	1070
1535	1072
1536	1074
1536	1077
1536	1079
1536	1082
1533	1084
1530	1086
1530	1089
1531	1091
1533	1094
1534	1096
1534	1098
1535	1101
1537	1103
1539	1105
1539	1108
1538	1111
1535	1114
1531	1116
1529	1118
1527	1121
1526	1123
1525	1126
1526	1128
1526	1130
1527	1133
1528	1135
1528	1138
1528	1140
1527	1142
1527	1145
1527	1147
1527	1150
1527	1153
1525	1155
1524	1158
1523	1160
1524	1163
1525	1165
1525	1167
1526	1170
1526	1172
1528	1175
1529	1177
1532	1179
1534	1182
1536	1184
1537	1186
1536	1189
1533	1191
1531	1195
1528	1197
1525	1199
1523	1202
1523	1204
1525	1207
1529	1209
1532	1211
1532	1214
1530	1216
1528	1219
1528	1221
1529	1223
1529	1226
1530	1228
1529	1231
1528	1233
1528	1235
1527	1239
1526	1241
1525	1244
1527	1246
1528	1248
1529	1251
1530	1253
1530	1256
1530	1258
1528	1260
1527	1263
1526	1265
1526	1267
1527	1270
1527	1272
1527	1275
1526	1277
1524	1280
1522	1283
1522	1285
1524	1288
1525	1290
1527	1292
1527	1295
1529	1297
1531	1300
1533	1302
1532	1304
1531	1307
1531	1309
1534	1312
1534	1314
1535	1316
1535	1319
1535	1321
1538	1325
1542	1327
1541	1329
1536	1332
1530	1334
1526	1337
1526	1339
1526	1341
1526	1344
1526	1346
1526	1348
1524	1351
1524	1353
1524	1356
1525	1358
1526	1360
1526	1363
1526	1366
1526	1369
1528	1371
1528	1373
1529	1376
1530	1378
1528	1381
1528	1383
1527	1385
1526	1388
1525	1390
1525	1393
1524	1395
1523	1397
1522	1400
1523	1402
1524	1405
1522	1408
1521	1410
1523	1413
1529	1415
1532	1418
1532	1420
1531	1422
1528	1425
1527	1427
1525	1430
1523	1432
1524	1434
1532	1437
1542	1439
1552	1441
1560	1444
1560	1446
1555	1449
1546	1452
1538	1454
1534	1457
1530	1459
1528	1462
1531	1464
1536	1466
1538	1469
1540	1471
1540	1474
1537	1476
1536	1478
1536	1481
1535	1483
1535	1486
1535	1488
1535	1490
1541	1494
1548	1496
1556	1499
1562	1501
1560	1503
1558	1506
1562	1508
1567	1511
1569	1513
1565	1515
1561	1518
1554	1520
1551	1522
1549	1525
1546	1527
1549	1530
1551	1532
1554	1534
1556	1538
1559	1540
1559	1543
1555	1545
1551	1547
1548	1550
1546	1552
1547	1555
1555	1557
1567	1559
1578	1562
1584	1564
1586	1567
1585	1569
1583	1571
1577	1574
1572	1576
1569	1580
1564	1582
1563	1584
1565	1587
1566	1589
1563	1592
1554	1594
1546	1596
1548	1599
1560	1601
1578	1603
1597	1606
1602	1608
1603	1611
1595	1613
1588	1615
1584	1618
1592	1620
1600	1624
1600	1626
1594	1628
1587	1631
1581	1633
1576	1636
1570	1638
1564	1640
1565	1643
1570	1645
1582	1648
1589	1650
1584	1652
1575	1655
1570	1657
1564	1660
1558	1662
1550	1665
1550	1668
1564	1670
1591	1672
1604	1675
1598	1677
1580	1680
1558	1682
1542	1684
1541	1687
1549	1689
1565	1692
1577	1694
1582	1696
1589	1699
1597	1701
1605	1704
1604	1707
1588	1709
1563	1712
1556	1714
1551	1717
1553	1719
1553	1721
1551	1724
1552	1726
1552	1729
1544	1731
1537	1733
1535	1736
1534	1738
1550	1740
1568	1743
1586	1745
1590	1748
1580	1751
1569	1753
1567	1756
1572	1758
1580	1761
1583	1763
1579	1765
1562	1768
1541	1770
1518	1773
1508	1775
1505	1777
1498	1780
1493	1782
1494	1785
1492	1787
1490	1789
1486	1793
1480	1795
1479	1798
1482	1800
1487	1802
1499	1805
1505	1807
1515	1810
1525	1812
1531	1814
1526	1817
1509	1819
1504	1821
1510	1824
1519	1826
1524	1829
1525	1831
1532	1833
1533	1837
1531	1839
1531	1842
1525	1844
1512	1846
1500	1849
1488	1851
1489	1854
1494	1856
1506	1858
1509	1861
1510	1863
1517	1866
1508	1868
1486	1870
1477	1873
1471	1875
1471	1879
1478	1881
1484	1883
1494	1886
1501	1888
1504	1891
1496	1893
1497	1895
1506	1898
1507	1900
1507	1902
1510	1905
1525	1907
1534	1910
1531	1912
1521	1914
1506	1917
1504	1920
1505	1923
1515	1925
1525	1927
1535	1930
1528	1932
1509	1935
1488	1937
1476	1939
1475	1942
1487	1944
1509	1947
1520	1949
1511	1951
1483	1954
1460	1956
1453	1959
1457	1961
1462	1964
1479	1967
1495	1969
1516	1972
1522	1974
1501	1976
1479	1979
1468	1981
1471	1983
1493	1986
1517	1988
1532	1991
1549	1993
1552	1995
1548	1998
1531	2000
1510	2003
1484	2006
1456	2008
1439	2011
1440	2013
1479	2016
1523	2018
1542	2020
1516	2023
1493	2025
1486	2028
1486	2030
1489	2032
1496	2035
1503	2037
1510	2040
1498	2042
1474	2044
1458	2048
1449	2050
1445	2053
1443	2055
1436	2057
1431	2060
1451	2062
1480	2064
1486	2067
1466	2069
1453	2072
1452	2074
1459	2076
1470	2079
1483	2081
1491	2084
1487	2086
1460	2088
1437	2092
1436	2094
1452	2097
1488	2099
1536	2101
1581	2104
1577	2106
1543	2109
1511	2111
1477	2113
1459	2116
1452	2118
1453	2121
1459	2123
1466	2125
1475	2128
1487	2130
1491	2134
1491	2136
1482	2138
1480	2141
1485	2143
1492	2145
1494	2148
1498	2150
1491	2153
1476	2155
1472	2157
1472	2160
1476	2162
1486	2165
1497	2167
1505	2169
1501	2172
1489	2174
1475	2178
1473	2180
1490	2182
1516	2185
1531	2187
1531	2190
1511	2192
1488	2194
1484	2197
1495	2199
1513	2202
1533	2204
1537	2206
1531	2209
1540	2211
1555	2214
1554	2216
1527	2219
1511	2222
1504	2224
1500	2227
1494	2229
1492	2231
1498	2234
1500	2236
1478	2238
1455	2241
1439	2243
1434	2246
1445	2248
1467	2250
1484	2253
1491	2255
1483	2258
1472	2260
1479	2263
1489	2266
1512	2268
1529	2271
1533	2273
1522	2275
1487	2278
1471	2280
1455	2283
1451	2285
1467	2287
1501	2290
1529	2292
1530	2295
1505	2297
1506	2299
1518	2302
1523	2305
1512	2308
1503	2310
1504	2312
1495	2315
1478	2317
1467	2319
1467	2322
1489	2324
1523	2327
1546	2329
1551	2331
1551	2334
1532	2336
1517	2339
1508	2341
1491	2343
1484	2347
1477	2349
1472	2352
1466	2354
1465	2356
1473	2359
1485	2361
1495	2364
1516	2366
1541	2368
1553	2371
1561	2373
1545	2376
1535	2378
1528	2380
1511	2383
1505	2385
1500	2388
1496	2391
1491	2393
1489	2396
1488	2398
1505	2400
1530	2403
1537	2405
1523	2408
1510	2410
1491	2412
1483	2415
1487	2417
1500	2420
1500	2422
1479	2424
1473	2427
1498	2429
1537	2433
1560	2435
1553	2437
1525	2440
1509	2442
1509	2445
1510	2447
1519	2449
1538	2452
1535	2454
1527	2457
1520	2459
1510	2461
1506	2464
1517	2466
1538	2469
1544	2471
1538	2473
1539	2477
1546	2479
1543	2481
1534	2484
1536	2486
1541	2489
1551	2491
1543	2493
1532	2496
1518	2498
1502	2501
1497	2503
1498	2505
1508	2508
1533	2510
1554	2513
1545	2515
1537	2518
1515	2521
1500	2523
1502	2526
1525	2528
1554	2530
1571	2533
1570	2535
1562	2538
1561	2540
1579	2542
1586	2545
1578	2547
1562	2550
1553	2552
1554	2554
1564	2557
1563	2560
1550	2562
1543	2565
1523	2567
1505	2570
1518	2572
1541	2574
1557	2577
1572	2579
1575	2582
1577	2584
1561	2586
1522	2589
1505	2591
1502	2594
1504	2596
1497	2598
1492	2601
1492	2604
1493	2607
1502	2609
1503	2611
1495	2614
1487	2616
1480	2619
1477	2621
1487	2623
1524	2626
1561	2628
1594	2631
1586	2633
1572	2635
1551	2638
1535	2640
1539	2642
1554	2646
1565	2648
1563	2651
1534	2653
1525	2655
1514	2658
1527	2660
1548	2663
1560	2665
1556	2667
1529	2670
1516	2672
1529	2675
1544	2677
1574	2679
1566	2682
1528	2684
1505	2688
1497	2690
1504	2692
1510	2695
1501	2697
1494	2700
1507	2702
1518	2704
1537	2707
1550	2709
1555	2712
1529	2714
1505	2716
1520	2719
1542	2721
1548	2723
1557	2726
1570	2728
1591	2732
1594	2734
1567	2736
1542	2739
1527	2741
1526	2744
1513	2746
1502	2748
1511	2751
1533	2753
1551	2756
1543	2758
1530	2760
1514	2763
1500	2765
1482	2768
1478	2770
1473	2772
1485	2776
1499	2778
1513	2781
1528	2783
1559	2785
1584	2788
1583	2790
1589	2793
1564	2795
1531	2797
1514	2800
1515	2802
1525	2804
1535	2807
1531	2809
1525	2812
1537	2814
1562	2817
1586	2820
1588	2822
1588	2825
1564	2827
1518	2829
1479	2832
1467	2834
1468	2837
1478	2839
1479	2841
1471	2844
1463	2846
1458	2849
1456	2851
1456	2853
1464	2856
1471	2859
1482	2862
1502	2864
1546	2866
1575	2869
1572	2871
1547	2874
1512	2876
1496	2878
1494	2881
1503	2883
1504	2886
1515	2888
1542	2890
1545	2893
1530	2895
1508	2897
1491	2900
1492	2903
1501	2906
1500	2908
1490	2910
1491	2913
1486	2915
1475	2918
1472	2920
1498	2922
1538	2925
1577	2927
1588	2930
1559	2932
1512	2934
1498	2937
1498	2939
1498	2942
1493	2945
1495	2947
1514	2950
1517	2952
1498	2955
1503	2957
1517	2959
1534	2962
1541	2964
1554	2966
1575	2969
1603	2971
1602	2974
1590	2976
1569	2978
1556	2981
1551	2983
1528	2987
1522	2989
1530	2991
1531	2994
1513	2996
1499	2999
1494	3001
1492	3003
1500	3006
1525	3008
1556	3011
1570	3013
1569	3015
1555	3018
1520	3020
1505	3023
1493	3025
1490	3027
1507	3031
1528	3033
1530	3036
1518	3038
1511	3040
1538	3043
1556	3045
1535	3048
1504	3050
1485	3052
1478	3055
1484	3057
1498	3059
1531	3062
1567	3064
1581	3067
1537	3069
1504	3072
1496	3075
1495	3077
1503	3080
1494	3082
1474	3084
1469	3087
1485	3089
1529	3092
1565	3094
1590	3096
1591	3099
1560	3101
1512	3104
1469	3106
1452	3108
1457	3111
1473	3113
1489	3117
1486	3119
1472	3121
1470	3124
1491	3126
1530	3129
1553	3131
1559	3133
1541	3136
1506	3138
1474	3141
1468	3143
1474	3145
1492	3148
1510	3150
1532	3152
1533	3155
1527	3158
1505	3161
1467	3163
1453	3165
1471	3168
1516	3170
1547	3173
1551	3175
1521	3177
1520	3180
1534	3182
1554	3185
1552	3187
1533	3189
1516	3192
1505	3194
1503	3197
1506	3200
1515	3202
1516	3205
1517	3207
1528	3210
1523	3212
1515	3214
1501	3217
1486	3219
1476	3222
1477	3224
1495	3226
1518	3229
1530	3231
1536	3233
1526	3236
1511	3238
1476	3241
1454	3244
1456	3246
1472	3249
1493	3251
1502	3254
1481	3256
1468	3258
1483	3261
1501	3263
1515	3266
1522	3268
1534	3270
1526	3273
1503	3275
1491	3278
1479	3280
1477	3282
1488	3286
1499	3288
1514	3291
1508	3293
1492	3295
1477	3298
1470	3300
1467	3303
1486	3305
1502	3307
1509	3310
1519	3312
1528	3314
1527	3317
1531	3319
1547	3322
1574	3324
1573	3326
1544	3330
1497	3332
1482	3335
1487	3337
1490	3339
1489	3342
1477	3344
1478	3347
1493	3349
1516	3351
1538	3354
1536	3356
1507	3359
1491	3361
1504	3363
1539	3366
1560	3368
1549	3372
1527	3374
1522	3376
1529	3379
1543	3381
1561	3384
1556	3386
1527	3388
1524	3391
1539	3393
1528	3395
1502	3398
1511	3400
1527	3403
1528	3405
1520	3407
1525	3410
1532	3412
1538	3416
1523	3418
1505	3420
1495	3423
1479	3425
1483	3428
1499	3430
1528	3432
1542	3435
1514	3437
1486	3440
1481	3442
1481	3444
1485	3447
1481	3449
1476	3452
1464	3454
1449	3457
1454	3460
1484	3462
1524	3465
1555	3467
1559	3469
1547	3472
1544	3474
1556	3476
1581	3479
1595	3481
1582	3484
1556	3486
1536	3488
1537	3491
1549	3493
1550	3496
1544	3499
1537	3501
1551	3504
1576	3506
1585	3509
1590	3511
1580	3513
1555	3516
1548	3518
1555	3521
1558	3523
1559	3525
1565	3528
1553	3530
1537	3533
1543	3535
1567	3537
1599	3540
1604	3543
1557	3546
1535	3548
1524	3550
1520	3553
1536	3555
1575	3557
1596	3560
1579	3562
1530	3565
1494	3567
1491	3569
1499	3572
1512	3574
1515	3577
1503	3579
1478	3581
1478	3585
1490	3587
1516	3590
1537	3592
1522	3594
1514	3597
1510	3599
1529	3602
1548	3604
1553	3606
1529	3609
1503	3611
1495	3614
1497	3616
1516	3618
1528	3621
1533	3623
1515	3627
1513	3629
1519	3631
1507	3634
1479	3636
1476	3638
1495	3641
1522	3643
1536	3646
1517	3648
1507	3650
1517	3653
1534	3655
1549	3658
1528	3660
1497	3662
1492	3665
1492	3667
1493	3671
1499	3673
1502	3675
1506	3678
1491	3680
1479	3683
1489	3685
1518	3687
1543	3690
1552	3692
1552	3695
1524	3697
1482	3699
1453	3702
1453	3704
1464	3707
1487	3709
1498	3712
1488	3715
1469	3717
1447	3719
1441	3722
1450	3724
1484	3727
1522	3729
1531	3731
1530	3734
1505	3736
1482	3739
1469	3741
1460	3743
1456	3746
1463	3748
1478	3751
1518	3753
1583	3756
1631	3759
1613	3761
1551	3764
1496	3766
1472	3768
1470	3771
1490	3773
1523	3776
1534	3778
1534	3780
1531	3783
1538	3785
1544	3788
1515	3790
1481	3792
1468	3795
1457	3798
1453	3800
1456	3803
1469	3805
1479	3808
1494	3810
1514	3812
1505	3815
1491	3817
1469	3820
1465	3822
1454	3824
1442	3827
1450	3829
1472	3832
1499	3834
1523	3836
1523	3840
1512	3842
1500	3845
1497	3847
1498	3849
1504	3852
1506	3854
1497	3857
1492	3859
1494	3861
1478	3864
1469	3866
1487	3869
1513	3871
1538	3873
1512	3876
1501	3878
1493	3881
1477	3884
1461	3886
1498	3889
1555	3891
1599	3893
1585	3896
1507	3898
1476	3901
1450	3903
1436	3905
1428	3908
1424	3910
1421	3913
1429	3915
1452	3917
1487	3920
1514	3922
1569	3926
1602	3928
1592	3930
1554	3933
1518	3935
1503	3938
1521	3940
1543	3942
1552	3945
1532	3947
1498	3950
1488	3952
1504	3954
1531	3957
1556	3959
1557	3962
1563	3964
1559	3966
1541	3970
1510	3972
1488	3974
1475	3977
1477	3979
1479	3982
1481	3984
1487	3986
1509	3989
1552	3991
1582	3994
1576	3996
1550	3998
1547	4001
1565	4003
1578	4006
1583	4008
1577	4011
1573	4014
1568	4016
1576	4019
1590	4021
1609	4023
1635	4026
1624	4028
1602	4031
1559	4033
1538	4035
1525	4038
1522	4040
1521	4043
1529	4045
1560	4047
1601	4050
1618	4052
1572	4055
1521	4058
1496	4060
1483	4063
1480	4065
1477	4067
1477	4070
1491	4072
1529	4075
1582	4077
1597	4079
1570	4082
1532	4084
1502	4087
1486	4089
1478	4091
1490	4094
1540	4097
1579	4100
1583	4102
1531	4104
1504	4107
1489	4109
1475	4112
1475	4114
1473	4116
1472	4119
1488	4121
1527	4123
1565	4126
1568	4128
1539	4131
1509	4133
1511	4135
1533	4139
1540	4141
1521	4144
1528	4146
1533	4148
1535	4151
1523	4153
1516	4156
1529	4158
1542	4160
1540	4163
1533	4165
1529	4168
1548	4170
1566	4172
1568	4175
1541	4177
1474	4180
1452	4183
1452	4185
1472	4188
1483	4190
1476	4193
1450	4195
1438	4197
1434	4200
1431	4202
1432	4204
1436	4207
1447	4209
1466	4212
1491	4214
1497	4216
1506	4219
1544	4221
1573	4225
1549	4227
1516	4229
1522	4232
1533	4234
1554	4237
1562	4239
1558	4241
1548	4244
1549	4246
1571	4249
1569	4251
1527	4253
1501	4256
1499	4258
1494	4261
1490	4263
1479	4265
1461	4269
1448	4271
1442	4274
1441	4276
1443	4278
1455	4281
1486	4283
1513	4285
1517	4288
1507	4290
1507	4293
1522	4295
1513	4297
1508	4300
1502	4302
1502	4305
1495	4307
1482	4310
1482	4313
1500	4315
1526	4318
1567	4320
1594	4322
1592	4325
1561	4327
1530	4330
1523	4332
1558	4334
1606	4337
1630	4339
1604	4342
1566	4344
1552	4346
1556	4349
1568	4352
1559	4355
1545	4357
1540	4359
1545	4362
1560	4364
1566	4366
1555	4369
1528	4371
1511	4374
1492	4376
1487	4378
1516	4381
1557	4383
1581	4386
1571	4388
1576	4390
1579	4393
1568	4396
1556	4399
1552	4401
1563	4403
1596	4406
1604	4408
1595	4411
1565	4413
1550	4415
1553	4418
1569	4420
1614	4423
1662	4425
1674	4427
1638	4430
1577	4432
1562	4435
1553	4438
1551	4440
1550	4443
1560	4445
1596	4447
1633	4450
1648	4452
1630	4455
1616	4457
1612	4459
1620	4462
1641	4464
1666	4467
1661	4469
1643	4471
1612	4474
1563	4476
1536	4480
1526	4482
1525	4484
1532	4487
1548	4489
1589	4492
1617	4494
1618	4496
1580	4499
1544	4501
1523	4504
1524	4506
1534	4508
1538	4511
1550	4513
1564	4516
1565	4518
1540	4520
1518	4524
1509	4526
1502	4528
1500	4531
1505	4533
1508	4536
1524	4538
1577	4540
1603	4543
1597	4545
1537	4548
1490	4550
1460	4552
1460	4555
1473	4557
1487	4560
1495	4562
1495	4564
1497	4568
1492	4570
1471	4573
1449	4575
1427	4577
1415	4580
1404	4582
1396	4585
1397	4587
1411	4589
1434	4592
1459	4594
1465	4597
1450	4599
1428	4601
1413	4604
1420	4606
1454	4609
1497	4612
1514	4614
1492	4617
1443	4619
1403	4621
1398	4624
1404	4626
1406	4629
1401	4631
1408	4633
1453	4636
1515	4638
1525	4641
1471	4643
1423	4645
1428	4648
1473	4651
1525	4654
1538	4656
1518	4658
1447	4661
1419	4663
1417	4666
1421	4668
1410	4670
1403	4673
1401	4675
1400	4678
1411	4680
1427	4682
1442	4685
1451	4687
1460	4689
1476	4692
1484	4695
1467	4698
1470	4700
1477	4702
1477	4705
1465	4707
1450	4710
1462	4712
1479	4714
1502	4717
1522	4719
1536	4722
1536	4724
1529	4726
1502	4729
1477	4731
1459	4734
1446	4737
1463	4739
1490	4742
1513	4744
1503	4747
1465	4749
1447	4751
1439	4754
1429	4756
1438	4759
1459	4761
1480	4763
1480	4766
1480	4768
1479	4770
1480	4773
1464	4775
1440	4779
1416	4781
1423	4783
1443	4786
1447	4788
1428	4791
1433	4793
1463	4795
1484	4798
1516	4800
1507	4803
1467	4805
1454	4807
1465	4810
1469	4812
1440	4815
1424	4817
1416	4819
1419	4823
1423	4825
1427	4828
1431	4830
1438	4832
1449	4835
1476	4837
1512	4840
1522	4842
1493	4844
1486	4847
1507	4849
1518	4851
1508	4854
1483	4856
1463	4859
1459	4861
1468	4864
1478	4867
1498	4869
1517	4872
1505	4874
1490	4876
1461	4879
1442	4881
1457	4884
1505	4886
1539	4888
1535	4891
1499	4893
1444	4896
1423	4898
1416	4900
1415	4903
1417	4905
1433	4909
1453	4911
1485	4913
1509	4916
1519	4918
1486	4921
1461	4923
1472	4925
1512	4928
1551	4930
1553	4932
1539	4935
1520	4937
1515	4940
1523	4942
1514	4944
1488	4947
1465	4950
1473	4953
1515	4955
1536	4957
1507	4960
1473	4962
1479	4965
1490	4967
1514	4969
1520	4972
1515	4974
1526	4977
1534	4979
1524	4981
1499	4984
1480	4986
1464	4989
1471	4992
1485	4994
1493	4997
1469	4999
1441	5002
1452	5004
1484	5006
1522	5009
1526	5011
1509	5013
1457	5016
1423	5018
1409	5021
1408	5023
1426	5025
1452	5028
1479	5030
1495	5033
1524	5036
1522	5038
1478	5041
1442	5043
1437	5046
1456	5048
1482	5050
1502	5053
1511	5055
1510	5058
1526	5060
1574	5062
1599	5065
1572	5067
1525	5070
1487	5072
1472	5074
1469	5078
1471	5080
1474	5083
1469	5085
1465	5087
1465	5090
1463	5092
1462	5094
1456	5097
1448	5099
1447	5102
1457	5104
1482	5106
1497	5109
1518	5111
1523	5114
1518	5116
1500	5118
1471	5122
1472	5124
1490	5127
1517	5129
1543	5131
1532	5134
1519	5136
1513	5139
1504	5141
1532	5143
1555	5146
1553	5148
1534	5151
1533	5153
1547	5155
1572	5158
1578	5160
1555	5164
1534	5166
1498	5168
1480	5171
1482	5173
1509	5176
1533	5178
1532	5180
1505	5183
1487	5185
1490	5187
1497	5190
1480	5192
1465	5195
1470	5197
1474	5199
1471	5202
1454	5204
1439	5208
1434	5210
1436	5212
1439	5215
1439	5217
1441	5220
1449	5222
1460	5224
1483	5227
1523	5229
1566	5232
1579	5234
1574	5236
1536	5239
1499	5241
1473	5244
1476	5246
1519	5249
1565	5252
1607	5254
1598	5257
1558	5259
1522	5261
1490	5264
1469	5266
1459	5268
1446	5271
1437	5273
1460	5276
1493	5278
1545	5280
1561	5283
1500	5285
1467	5288
1446	5291
1443	5293
1461	5296
1475	5298
1471	5301
1458	5303
1456	5305
1465	5308
1492	5310
1520	5313
1542	5315
1559	5317
1548	5320
1502	5322
1474	5325
1463	5327
1462	5329
1463	5332
1466	5335
1465	5338
1466	5340
1467	5342
1495	5345
1539	5347
1582	5349
1582	5352
1557	5354
1546	5357
1523	5359
1508	5361
1513	5364
1534	5366
1560	5369
1584	5371
1587	5373
1569	5377
1564	5379
1557	5382
1523	5384
1484	5386
1477	5389
1486	5391
1489	5394
1496	5396
1485	5398
1470	5401
1470	5403
1469	5406
1467	5408
1457	5410
1449	5413
1466	5415
1511	5419
1564	5421
1615	5423
1608	5426
1574	5428
1519	5430
1486	5433
1484	5435
1493	5438
1486	5440
1455	5442
1429	5445
1418	5447
1416	5450
1441	5452
1495	5454
1559	5457
1575	5459
1524	5463
1490	5465
1482	5467
1476	5470
1465	5472
1450	5475
1441	5477
1441	5479
1443	5482
1464	5484
1499	5487
1527	5489
1518	5491
1480	5494
1456	5496
1455	5499
1485	5501
1535	5504
1569	5507
1576	5509
1538	5511
1514	5514
1507	5516
1503	5519
1490	5521
1478	5523
1459	5526
1453	5528
1466	5531
1486	5533
1516	5535
1538	5538
1521	5540
1500	5543
1509	5545
1529	5548
1562	5551
1588	5553
1596	5556
1567	5558
1522	5560
1507	5563
1490	5565
1493	5568
1509	5570
1531	5572
1543	5575
1543	5577
1516	5580
1513	5582
1551	5584
1587	5587
1595	5590
1572	5593
1537	5595
1509	5597
1499	5600
1516	5602
1533	5604
1545	5607
1546	5609
1543	5612
1546	5614
1567	5616
1587	5619
1596	5621
1572	5624
1536	5626
1502	5628
1508	5632
1537	5634
1560	5637
1550	5639
1515	5641
1471	5644
1461	5646
1465	5649
1504	5651
1557	5653
1582	5656
1559	5658
1498	5661
1474	5663
1466	5665
1468	5668
1486	5670
1513	5673
1531	5676
1520	5678
1508	5681
1514	5683
1519	5685
1517	5688
1508	5690
1507	5693
1526	5695
1567	5697
1588	5700
1573	5702
1556	5705
1578	5707
1614	5709
1623	5712
1572	5714
1512	5718
1487	5720
1485	5722
1498	5725
1515	5727
1516	5730
1533	5732
1567	5734
1587	5737
1584	5739
1542	5742
1491	5744
1467	5746
1457	5749
1454	5751
1456	5754
1462	5756
1481	5758
1489	5762
1474	5764
1451	5766
1445	5769
1438	5771
1432	5774
1440	5776
1456	5778
1478	5781
1511	5783
1542	5786
1545	5788
1520	5790
1486	5793
1471	5795
1461	5798
1455	5800
1450	5803
1462	5806
1488	5808
1552	5811
1602	5813
1612	5815
1594	5818
1549	5820
1506	5823
1474	5825
1454	5827
1429	5830
1408	5832
1416	5835
1430	5837
1440	5839
1433	5842
1429	5844
1435	5847
1441	5850
1444	5852
1438	5855
1448	5857
1484	5859
1518	5862
1524	5864
1496	5867
1472	5869
1465	5871
1464	5874
1472	5876
1476	5879
1473	5881
1463	5883
1461	5886
1473	5889
1493	5892
1525	5894
1554	5896
1543	5899
1524	5901
1511	5904
1534	5906
1554	5908
1531	5911
1491	5913
1461	5916
1471	5918
1494	5920
1522	5923
1536	5925
1539	5927
1535	5931
1506	5933
1478	5936
1469	5938
1470	5940
1472	5943
1467	5945
1453	5948
1450	5950
1455	5952
1467	5955
1476	5957
1474	5960
1470	5962
1459	5964
1460	5967
1474	5969
1500	5972
1528	5975
1544	5977
1540	5980
1517	5982
1483	5985
1465	5987
1451	5989
1453	5992
1464	5994
1472	5997
1472	5999
1474	6001
1491	6004
1524	6006
1547	6009
1547	6011
1531	6013
1530	6017
1564	6019
1606	6021
1627	6024
1593	6026
1533	6029
1498	6031
1502	6033
1531	6036
1565	6038
1558	6041
1531	6043
1510	6045
1480	6048
1468	6050
1467	6053
1463	6055
1461	6057
1478	6061
1504	6063
1531	6066
1556	6068
1544	6070
1526	6073
1505	6075
1490	6078
1493	6080
1519	6082
1547	6085
1570	6087
1550	6090
1514	6092
1484	6094
1477	6097
1488	6099
1500	6102
1516	6105
1524	6107
1537	6110
1535	6112
1509	6114
1496	6117
1523	6119
1556	6122
1571	6124
1558	6126
1542	6129
1544	6131
1550	6134
1553	6136
1528	6138
1481	6141
1466	6144
1465	6147
1468	6149
1468	6151
1473	6154
1491	6156
1499	6159
1505	6161
1512	6163
1515	6166
1509	6168
1493	6171
1496	6173
1509	6175
1516	6178
1505	6180
1515	6182
1528	6185
1548	6188
1560	6191
1548	6193
1526	6195
1535	6198
1557	6200
1574	6203
1555	6205
1512	6207
1494	6210
1482	6212
1485	6215
1487	6217
1473	6219
1470	6222
1472	6224
1473	6227
1475	6230
1482	6232
1514	6235
1520	6237
1489	6240
1474	6242
1468	6244
1493	6247
1525	6249
1541	6252
1517	6254
1490	6256
1472	6259
1464	6261
1467	6263
1472	6266
1474	6268
1476	6272
1508	6274
1565	6276
1623	6279
1618	6281
1565	6284
1522	6286
1479	6288
1445	6291
1434	6293
1434	6296
1431	6298
1427	6300
1424	6303
1432	6305
1441	6308
1442	6310
1431	6312
1420	6316
1415	6318
1421	6321
1439	6323
1458	6325
1471	6328
1506	6330
1546	6333
1563	6335
1548	6337
1522	6340
1510	6342
1484	6344
1471	6347
1480	6349
1500	6352
1515	6354
1511	6356
1498	6360
1501	6362
1503	6365
1514	6367
1528	6369
1540	6372
1536	6374
1515	6377
1488	6379
1472	6381
1459	6384
1449	6386
1455	6389
1469	6391
1475	6393
1477	6396
1476	6398
1489	6402
1533	6404
1575	6406
1597	6409
1598	6411
1579	6414
1541	6416
1529	6418
1516	6421
1494	6423
1478	6425
1474	6428
1510	6430
1548	6433
1564	6435
1550	6437
1540	6440
1544	6443
1546	6446
1522	6448
1499	6450
1502	6453
1522	6455
1527	6458
1515	6460
1504	6462
1518	6465
1544	6467
1572	6470
1565	6472
1525	6474
1506	6477
1498	6479
1510	6482
1528	6484
1550	6487
1549	6490
1532	6492
1524	6494
1531	6497
1541	6499
1536	6502
1509	6504
1504	6506
1539	6509
1627	6511
1711	6514
1737	6516
1689	6518
1618	6521
1555	6523
1534	6526
1526	6529
1529	6531
1538	6534
1543	6536
1545	6539
1535	6541
1526	6543
1528	6546
1528	6548
1516	6551
1510	6553
1508	6555
1505	6558
1512	6560
1545	6563
1591	6565
1612	6567
1605	6571
1566	6573
1567	6576
1588	6578
1593	6580
1555	6583
1512	6585
1496	6587
1529	6590
1574	6592
1592	6595
1563	6597
1507	6599
1486	6602
1484	6604
1495	6607
1501	6609
1485	6611
1463	6615
1443	6617
1458	6620
1480	6622
1482	6624
1466	6627
1464	6629
1471	6632
1466	6634
1471	6636
1491	6639
1505	6641
1506	6644
1500	6646
1493	6648
1498	6651
1509	6653
1516	6657
1521	6659
1530	6661
1546	6664
1545	6666
1561	6668
1590	6671
1601	6673
1582	6676
1547	6678
1503	6680
1484	6683
1483	6685
1509	6688
1543	6690
1558	6692
1555	6695
1533	6697
1507	6701
1499	6703
1498	6705
1510	6708
1512	6710
1507	6713
1507	6715
1532	6717
1557	6720
1542	6722
1491	6725
1478	6727
1475	6729
1491	6732
1501	6734
1496	6736
1471	6739
1454	6742
1458	6745
1486	6747
1518	6749
1546	6752
1546	6754
1521	6757
1489	6759
1465	6761
1454	6764
1469	6766
1488	6769
1495	6771
1486	6773
1498	6776
1500	6778
1489	6781
1474	6784
1467	6786
1472	6789
1467	6791
1462	6794
1479	6796
1511	6798
1512	6801
1485	6803
1471	6806
1447	6808
1452	6810
1474	6813
1498	6815
1503	6817
1511	6820
1492	6822
1480	6825
1481	6828
1488	6830
1493	6833
1482	6835
1472	6838
1472	6840
1496	6842
1530	6845
1553	6847
1531	6850
1492	6852
1480	6854
1480	6857
1493	6859
1514	6862
1538	6864
1538	6866
1508	6870
1482	6872
1480	6875
1474	6877
1474	6879
1464	6882
1443	6884
1430	6887
1431	6889
1454	6891
1491	6894
1509	6896
1477	6898
1445	6901
1450	6903
1472	6906
1494	6908
1509	6910
1538	6914
1564	6916
1574	6919
1563	6921
1539	6923
1533	6926
1545	6928
1564	6931
1573	6933
1571	6935
1567	6938
1568	6940
1557	6943
1560	6945
1576	6947
1605	6950
1626	6952
1622	6956
1620	6958
1619	6960
1614	6963
1592	6965
1573	6968
1560	6970
1525	6972
1497	6975
1483	6977
1475	6979
1481	6982
1498	6984
1505	6987
1496	6989
1478	6991
1480	6994
1511	6996
1566	7000
1592	7002
1591	7004
1536	7007
1470	7009
1453	7012
1455	7014
1456	7016
1455	7019
1460	7021
1486	7024
1514	7026
1550	7028
1580	7031
1605	7033
1629	7036
1600	7038
1532	7041
1467	7044
1446	7046
1447	7049
1457	7051
1465	7053
1468	7056
1469	7058
1472	7061
1477	7063
1479	7065
1464	7068
1443	7070
1428	7072
1428	7075
1438	7077
1453	7080
1481	7083
1497	7085
1479	7088
1456	7090
1435	7093
1437	7095
1434	7097
1448	7100
1490	7102
1536	7105
1563	7107
1547	7109
1534	7112
1517	7114
1505	7117
1498	7119
1492	7121
1512	7124
1563	7127
1605	7130
1610	7132
1578	7134
1538	7137
1522	7139
1513	7142
1516	7144
1521	7146
1530	7149
1531	7151
1530	7153
1551	7156
1564	7158
1555	7161
1535	7163
1506	7165
1495	7169
1496	7171
1496	7174
1494	7176
1493	7178
1488	7181
1487	7183
1477	7186
1472	7188
1486	7190
1496	7193
1508	7195
1522	7198
1558	7200
1575	7202
1579	7205
1593	7207
1606	7211
1577	7213
1529	7215
1519	7218
1551	7220
1598	7223
1624	7225
1623	7227
1603	7230
1584	7232
1557	7234
1558	7237
1585	7239
1615	7242
1627	7244
1609	7246
1569	7249
1548	7251
1552	7255
1565	7257
1574	7259
1581	7262
1606	7264
1630	7267
1630	7269
1604	7271
1587	7274
1608	7276
1625	7279
1599	7281
1546	7283
1524	7286
1523	7288
1540	7291
1554	7293
1550	7296
1539	7299
1536	7301
1531	7304
1530	7306
1566	7308
1604	7311
1611	7313
1581	7315
1536	7318
1537	7320
1548	7323
1549	7325
1522	7327
1511	7330
1513	7332
1527	7335
1529	7337
1509	7340
1480	7343
1466	7345
1460	7348
1471	7350
1503	7352
1517	7355
1503	7357
1494	7360
1485	7362
1468	7364
1462	7367
1488	7369
1509	7372
1510	7374
1489	7376
1451	7379
1435	7382
1428	7385
1434	7387
1447	7389
1454	7392
1454	7394
1462	7396
1491	7399
1527	7401
1555	7404
1507	7406
1445	7408
1431	7411
1437	7413
1439	7416
1455	7418
1474	7420
1475	7424
1452	7426
1446	7429
1483	7431
1551	7433
1590	7436
1552	7438
1495	7441
1459	7443
1444	7445
1441	7448
1444	7450
1465	7453
1502	7455
1531	7457
1543	7460
1512	7462
1471	7465
1445	7468
1435	7470
1434	7473
1433	7475
1441	7477
1466	7480
1493	7482
1518	7485
1524	7487
1521	7489
1512	7492
1490	7494
1457	7497
1428	7499
1424	7501
1429	7504
1421	7506
1403	7510
1406	7512
1423	7514
1419	7517
1402	7519
1385	7522
1390	7524
1417	7526
1453	7529
1470	7531
1454	7534
1444	7536
1419	7538
1391	7541
1375	7543
1370	7546
1381	7548
1405	7550
1430	7554
1469	7556
1513	7559
1549	7561
1508	7563
1434	7566
1401	7568
1390	7570
1387	7573
1389	7575
1387	7578
1381	7580
1382	7582
1418	7585
1468	7587
1490	7590
1464	7592
1462	7595
1487	7598
1503	7600
1487	7603
1429	7605
1387	7607
1377	7610
1377	7612
1381	7615
1378	7617
1376	7619
1380	7622
1382	7624
1384	7627
1386	7629
1390	7631
1399	7634
1417	7636
1432	7640
1450	7642
1470	7644
1481	7647
1497	7649
1525	7651
1544	7654
1537	7656
1541	7659
1547	7661
1557	7663
1550	7666
1550	7668
1564	7671
1559	7673
1520	7675
1503	7678
1490	7681
1463	7684
1446	7686
1430	7688
1420	7691
1425	7693
1447	7696
1469	7698
1481	7700
1482	7703
1495	7705
1508	7708
1517	7710
1485	7712
1464	7715
1464	7717
1467	7720
1486	7723
1513	7725
1540	7728
1544	7730
1545	7733
1558	7735
1558	7737
1538	7740
1509	7742
1501	7745
1499	7747
1513	7749
1525	7752
1543	7754
1567	7756
1586	7759
1582	7761
1553	7764
1543	7767
1544	7769
1529	7772
1501	7774
1474	7777
1455	7779
1448	7781
1454	7784
1465	7786
1487	7789
1524	7791
1545	7793
1528	7796
1506	7798
1515	7801
1535	7803
1544	7805
1520	7809
1477	7811
1460	7814
1462	7816
1471	7818
1469	7821
1464	7823
1458	7825
1460	7828
1464	7830
1474	7833
1484	7835
1490	7837
1503	7840
1515	7842
1531	7845
1539	7847
1544	7849
1537	7853
1513	7855
1482	7858
1480	7860
1505	7862
1547	7865
1585	7867
1582	7870
1538	7872
1507	7874
1499	7877
1504	7879
1505	7882
1497	7884
1491	7886
1487	7889
1496	7891
1516	7895
1520	7897
1518	7899
1505	7902
1502	7904
1531	7906
1557	7909
1556	7911
1538	7914
1533	7916
1566	7918
1605	7921
1628	7923
1589	7926
1553	7928
1548	7930
1567	7933
1584	7936
1581	7939
1574	7941
1557	7943
1541	7946
1529	7948
1533	7951
1553	7953
1566	7955
1549	7958
1543	7960
1527	7963
1521	7965
1504	7967
1482	7970
1467	7972
1466	7975
1478	7977
1489	7980
1474	7983
1457	7985
1469	7988
1496	7990
1523	7992
1532	7995
1539	7997
1565	7999
1601	8002
1607	8004
1574	8007
1534	8009
1512	8011
1506	8014
1509	8016
1540	8019
1584	8022
1609	8024
1583	8027
1522	8029
1506	8032
1511	8034
1527	8036
1519	8039
1482	8041
1464	8044
1452	8046
1454	8048
1463	8051
1469	8053
1471	8056
1462	8058
1463	8060
1483	8064
1511	8066
1508	8069
1482	8071
1468	8073
1487	8076
1521	8078
1549	8080
1558	8083
1537	8085
1512	8088
1490	8090
1497	8092
1522	8095
1544	8097
1556	8100
1561	8102
1604	8104
1635	8108
1646	8110
1623	8113
1568	8115
1531	8117
1503	8120
1488	8122
1490	8125
1502	8127
1539	8129
1573	8132
1583	8134
1567	8137
1562	8139
1581	8141
1589	8144
1564	8146
1521	8150
1505	8152
1498	8154
1503	8157
1521	8159
1542	8161
1545	8164
1536	8166
1515	8169
1492	8171
1491	8173
1490	8176
1483	8178
1469	8181
1472	8183
1498	8185
1523	8188
1544	8190
1537	8194
1530	8196
1544	8198
1583	8201
1613	8203
1600	8206
1571	8208
1558	8210
1531	8213
1506	8215
1506	8218
1537	8220
1558	8222
1549	8225
1512	8227
1484	8230
1490	8232
1514	8235
1522	8238
1512	8240
1518	8242
1524	8245
1559	8247
1598	8250
1625	8252
1636	8254
1595	8257
1567	8259
1543	8262
1539	8264
1543	8266
1555	8269
1548	8271
1538	8274
1511	8276
1504	8279
1503	8282
1509	8284
1556	8287
1612	8289
1639	8291
1611	8294
1569	8296
1540	8299
1537	8301
1547	8303
1545	8306
1540	8308
1533	8311
1553	8313
1600	8315
1640	8318
1645	8321
1613	8323
1583	8326
1566	8328
1568	8331
1598	8333
1631	8335
1635	8338
1618	8340
1594	8343
1586	8345
1576	8347
1585	8350
1600	8352
1616	8355
1627	8357
1629	8359
1598	8363
1561	8365
1537	8368
1526	8370
1519	8372
1527	8375
1544	8377
1558	8380
1554	8382
1532	8384
1529	8387
1563	8389
1621	8392
1645	8394
1629	8396
1575	8399
1526	8401
1505	8403
1516	8407
1542	8409
1548	8412
1502	8414
1473	8416
1470	8419
1473	8421
1474	8424
1473	8426
1481	8428
1502	8431
1522	8433
1535	8436
1529	8438
1513	8440
1508	8443
1509	8445
1520	8449
1518	8451
1506	8453
1513	8456
1524	8458
1519	8461
1510	8463
1498	8465
1482	8468
1480	8470
1476	8473
1476	8475
1478	8477
1484	8480
1498	8482
1516	8484
1527	8487
1550	8489
1596	8493
1630	8495
1630	8497
1572	8500
1518	8502
1487	8505
1469	8507
1447	8509
1429	8512
1420	8514
1441	8517
1478	8519
1503	8521
1485	8524
1427	8526
1401	8529
1387	8531
1383	8534
1381	8537
1382	8539
1386	8542
1384	8544
1382	8546
1377	8549
1380	8551
1397	8554
1427	8556
1460	8558
1470	8561
1476	8563
1459	8565
1446	8568
1478	8570
1521	8573
1534	8576
1494	8578
1460	8581
1497	8583
1559	8586
1601	8588
1577	8590
1506	8593
1447	8595
1432	8598
1442	8600
1450	8602
1450	8605
1435	8607
1419	8610
1421	8612
1429	8614
1431	8617
1427	8620
1410	8623
1402	8625
1402	8627
1398	8630
1395	8632
1398	8635
1404	8637
1411	8639
1432	8642
1459	8644
1481	8646
1494	8649
1507	8651
1525	8654
1532	8656
1547	8658
1570	8662
1570	8664
1545	8667
1509	8669
1473	8671
1459	8674
1466	8676
1496	8679
1537	8681
1550	8683
1549	8686
1534	8688
1523	8691
1505	8693
1488	8695
1485	8698
1505	8700
1523	8704
1559	8706
1585	8708
1581	8711
1538	8713
1499	8716
1471	8718
1457	8720
1452	8723
1452	8725
1456	8727
1461	8730
1470	8732
1508	8735
1554	8737
1559	8739
1523	8742
1505	8744
1527	8748
1548	8750
1573	8752
1575	8755
1564	8757
1563	8760
1550	8762
1504	8764
1459	8767
1446	8769
1440	8772
1439	8774
1447	8776
1476	8779
1509	8781
1516	8784
1498	8786
1485	8788
1481	8792
1478	8794
1470	8797
1463	8799
1471	8801
1480	8804
1490	8806
1497	8809
1509	8811
1539	8813
1557	8816
1563	8818
1551	8820
1528	8823
1526	8825
1536	8828
1523	8830
1529	8833
1552	8836
1555	8838
1514	8841
1477	8843
1473	8845
1489	8848
1513	8850
1526	8853
1502	8855
1461	8857
1433	8860
1422	8862
1421	8865
1445	8867
1474	8869
1486	8872
1479	8875
1455	8878
1450	8880
1452	8882
1455	8885
1459	8887
1454	8889
1440	8892
1437	8894
1441	8897
1454	8899
1475	8901
1503	8904
1523	8906
1534	8909
1531	8911
1528	8913
1520	8916
1499	8919
1493	8922
1515	8924
1545	8926
1565	8929
1555	8931
1538	8934
1518	8936
1492	8938
1467	8941
1441	8943
1436	8946
1441	8948
1439	8950
1437	8953
1435	8955
1425	8958
1429	8961
1432	8963
1431	8966
1440	8968
1462	8970
1489	8973
1500	8975
1482	8978
1467	8980
1463	8982
1465	8985
1480	8987
1498	8990
1522	8992
1536	8994
1538	8997
1533	8999
1522	9003
1537	9005
1571	9007
1606	9010
1599	9012
1554	9015
1535	9017
1535	9019
1540	9022
1541	9024
1506	9027
1470	9029
1468	9031
1480	9034
1493	9036
1495	9039
1486	9041
1477	9043
1475	9047
1472	9049
1473	9051
1483	9054
1496	9056
1492	9059
1475	9061
1465	9063
1465	9066
1469	9068
1470	9071
1466	9073
1463	9075
1482	9078
1537	9080
1593	9083
1605	9085
1562	9088
1498	9091
1470	9093
1457	9096
1461	9098
1479	9100
1494	9103
1505	9105
1512	9108
1526	9110
1526	9112
1525	9115
1536	9117
1558	9120
1551	9122
1522	9124
1509	9127
1509	9129
1506	9133
1498	9135
1490	9137
1498	9140
1516	9142
1537	9144
1546	9147
1546	9149
1529	9152
1488	9154
1469	9156
1460	9159
1460	9161
1465	9164
1464	9166
1460	9168
1453	9171
1444	9174
1444	9177
1466	9179
1490	9181
1504	9184
1495	9186
1476	9189
1469	9191
1480	9193
1510	9196
1542	9198
1570	9201
1563	9203
1541	9205
1519	9208
1506	9210
1482	9213
1469	9216
1471	9218
1483	9221
1490	9223
1496	9225
1504	9228
1490	9230
1476	9233
1488	9235
1509	9237
1526	9240
1532	9242
1535	9245
1528	9247
1496	9249
1475	9252
1485	9254
1509	9257
1532	9260
1535	9262
1507	9265
1489	9267
1474	9270
1461	9272
1453	9274
1444	9277
1438	9279
1451	9282
1470	9284
1483	9286
1484	9289
1479	9291
1489	9294
1515	9296
1551	9298
1582	9302
1583	9304
1544	9307
1505	9309
1507	9311
1562	9314
1597	9316
1582	9318
1531	9321
1482	9323
1486	9326
1499	9328
1522	9330
1523	9333
1495	9335
1463	9338
1443	9340
1444	9342
1461	9346
1472	9348
1486	9351
1521	9353
1551	9355
1560	9358
1550	9360
1547	9363
1548	9365
1557	9367
1547	9370
1533	9372
1492	9375
1467	9377
1459	9379
1446	9382
1442	9384
1446	9388
1457	9390
1454	9392
1449	9395
1441	9397
1435	9399
1433	9402
1431	9404
1430	9407
1428	9409
1426	9411
1426	9414
1428	9416
1437	9419
1468	9421
1518	9423
1552	9426
1561	9428
1586	9432
1643	9434
1678	9436
1658	9439
1606	9441
1579	9444
1568	9446
1550	9448
1528	9451
1518	9453
1541	9456
1598	9458
1642	9460
1645	9463
1604	9465
1580	9468
1572	9470
1549	9473
1521	9476
1510	9478
1515	9481
1510	9483
1493	9485
1469	9488
1450	9490
1449	9492
1447	9495
1440	9497
1435	9500
1443	9502
1481	9504
1514	9507
1520	9509
1489	9512
1478	9515
1477	9517
1468	9520
1451	9522
1432	9525
1416	9527
1418	9529
1434	9532
1450	9534
1454	9537
1449	9539
1454	9541
1467	9544
1486	9546
1497	9549
1500	9551
1493	9553
1487	9556
1502	9559
1528	9562
1556	9564
1559	9566
1546	9569
1533	9571
1518	9573
1513	9576
1507	9578
1487	9581
1460	9583
1458	9585
1473	9588
1493	9590
1522	9593
1548	9595
1574	9597
1588	9601
1554	9603
1499	9606
1473	9608
1468	9610
1477	9613
1496	9615
1516	9618
1518	9620
1497	9622
1469	9625
1454	9627
1450	9630
1445	9632
1445	9634
1452	9637
1466	9639
1474	9643
1468	9645
1458	9647
1474	9650
1501	9652
1526	9655
1556	9657
1601	9659
1641	9662
1614	9664
1565	9666
1542	9669
1515	9671
1502	9674
1501	9676
1491	9678
1482	9681
1482	9683
1498	9687
1510	9689
1510	9691
1506	9694
1514	9696
1529	9699
1544	9701
1539	9703
1517	9706
1498	9708
1501	9711
1515	9713
1533	9715
1556	9718
1574	9720
1568	9723
1568	9725
1576	9728
1576	9731
1574	9733
1549	9736
1541	9738
1546	9740
1553	9743
1543	9745
1517	9747
1506	9750
1500	9752
1517	9755
1553	9757
1585	9759
1588	9762
1546	9764
1513	9767
1510	9769
1504	9772
1491	9775
1499	9777
1532	9780
1561	9782
1560	9784
1526	9787
1512	9789
1506	9792
1499	9794
1488	9796
1483	9799
1490	9801
1510	9804
1542	9806
1560	9808
1551	9811
1544	9814
1554	9817
1557	9819
1552	9821
1568	9824
1595	9826
1614	9828
1602	9831
1561	9833
1536	9836
1523	9838
1528	9840
1539	9843
1538	9845
1522	9848
1518	9850
1513	9852
1512	9856
1514	9858
1509	9861
1510	9863
1528	9865
1545	9868
1554	9870
1554	9873
1546	9875
1553	9877
1533	9880
1503	9882
1498	9885
1490	9887
1485	9889
1480	9892
1496	9894
1504	9897
1508	9900
1504	9902
1507	9905
1500	9907
1476	9910
1456	9912
1457	9914
1457	9917
1456	9919
1452	9921
1450	9924
1451	9926
1451	9929
1445	9931
1441	9933
1455	9936
1473	9938
1485	9942
1483	9944
1484	9946
1499	9949
1517	9951
1528	9954
1515	9956
1483	9958
1494	9961
1531	9963
1571	9966
1580	9968
1539	9970
1492	9973
1461	9975
1447	9978
1447	9980
1450	9982
1452	9986
1451	9988
1455	9991
1462	9993
1476	9995
1499	9998
1514	10000
1517	10003
1513	10005
1500	10007
1509	10010
1527	10012
1538	10015
1534	10017
1525	10020
1525	10022
1530	10025
1529	10028
1512	10030
1483	10033
1470	10035
1471	10038
1471	10040
1472	10043
1480	10045
1508	10048
1538	10050
1546	10052
1525	10055
1511	10057
1503	10060
1491	10062
1476	10065
1468	10067
1460	10071
1455	10073
1452	10075
1459	10078
1480	10080
1502	10083
1516	10085
1506	10088
1518	10090
1537	10093
1549	10095
1553	10097
1535	10100
1516	10102
1507	10105
1544	10107
1582	10110
1582	10113
1548	10116
1526	10118
1540	10120
1561	10123
1555	10125
1523	10128
1510	10130
1508	10133
1501	10135
1489	10138
1474	10140
1468	10142
1463	10145
1460	10147
1456	10150
1448	10152
1441	10156
1434	10158
1439	10161
1464	10163
1498	10165
1510	10168
1492	10170
1478	10173
1483	10175
1516	10178
1550	10180
1574	10183
1581	10185
1585	10188
1588	10190
1570	10192
1537	10195
1505	10198
1487	10201
1475	10203
1472	10206
1489	10208
1517	10211
1550	10213
1568	10215
1555	10218
1526	10220
1524	10223
1515	10225
1496	10228
1470	10230
1458	10233
1449	10235
1444	10237
1452	10241
1465	10243
1474	10246
1474	10248
1512	10251
1564	10253
1587	10256
1557	10258
1503	10260
1486	10263
1501	10265
1534	10268
1559	10270
1553	10273
1518	10275
1493	10278
1479	10280
1482	10283
1512	10286
1534	10288
1529	10291
1506	10293
1487	10296
1490	10298
1526	10301
1589	10303
1625	10305
1606	10308
1562	10310
1543	10313
1532	10315
1509	10318
1482	10320
1473	10323
1474	10326
1477	10328
1484	10331
1494	10333
1511	10336
1519	10338
1510	10341
1496	10343
1487	10346
1494	10348
1511	10350
1535	10353
1540	10355
1510	10358
1477	10360
1488	10363
1523	10365
1577	10369
1601	10371
1588	10373
1550	10376
1505	10378
1479	10381
1464	10383
1460	10386
1485	10388
1519	10390
1564	10393
1578	10395
1563	10398
1535	10400
1508	10403
1503	10405
1515	10408
1516	10411
1515	10413
1503	10416
1491	10418
1487	10421
1472	10423
1456	10426
1449	10428
1446	10431
1452	10433
1476	10435
1502	10438
1501	10440
1479	10443
1453	10445
1446	10448
1442	10450
1444	10454
1451	10456
1454	10458
1461	10461
1483	10463
1516	10466
1534	10468
1536	10471
1568	10473
1597	10476
1586	10478
1556	10480
1541	10483
1535	10485
1517	10488
1506	10490
1500	10493
1495	10496
1496	10499
1500	10501
1501	10503
1485	10506
1475	10508
1470	10511
1473	10513
1475	10516
1490	10518
1522	10521
1550	10523
1550	10525
1534	10528
1504	10530
1491	10533
1484	10535
1477	10539
1489	10541
1512	10544
1526	10546
1550	10548
1568	10551
1566	10553
1543	10556
1521	10558
1511	10561
1498	10563
1478	10566
1482	10568
1502	10570
1521	10573
1521	10575
1497	10578
1491	10580
1525	10584
1564	10586
1573	10589
1536	10591
1497	10593
1480	10596
1492	10598
1509	10601
1514	10603
1497	10606
1456	10608
1440	10611
1436	10613
1436	10615
1433	10618
1432	10620
1438	10624
1442	10626
1445	10629
1449	10631
1448	10634
1444	10636
1446	10638
1453	10641
1492	10643
1549	10646
1585	10648
1575	10651
1525	10653
1494	10656
1473	10658
1488	10660
1541	10663
1591	10665
1603	10669
1547	10671
1485	10674
1463	10676
1483	10679
1506	10681
1510	10683
1492	10686
1481	10688
1476	10691
1469	10693
1456	10696
1455	10698
1462	10701
1456	10703
1466	10705
1481	10708
1489	10711
1484	10714
1452	10716
1438	10719
1454	10721
1499	10724
1536	10726
1530	10728
1495	10731
1477	10733
1467	10736
1456	10738
1457	10741
1484	10743
1508	10746
1520	10748
1525	10750
1538	10754
1545	10756
1533	10759
1513	10761
1502	10764
1496	10766
1478	10769
1477	10771
1487	10773
1500	10776
1504	10778
1494	10781
1483	10783
1502	10786
1533	10788
1562	10791
1578	10793
1581	10796
1587	10799
1598	10801
1597	10804
1592	10806
1554	10809
1503	10811
1479	10814
1470	10816
1494	10818
1516	10821
1523	10823
1503	10826
1470	10828
1465	10831
1471	10833
1501	10836
1536	10839
1556	10842
1541	10844
1517	10846
1499	10849
1511	10851
1552	10854
1575	10856
1542	10859
1495	10861
1469	10864
1461	10866
1469	10868
1489	10871
1498	10873
1496	10876
1483	10878
1471	10882
1462	10884
1455	10886
1464	10889
1498	10891
1543	10894
1593	10896
1610	10899
1558	10901
1501	10904
1461	10906
1441	10908
1435	10911
1435	10913
1449	10916
1489	10918
1529	10921
1533	10924
1510	10927
1471	10929
1455	10931
1441	10934
1445	10936
1465	10939
1509	10941
1541	10944
1537	10946
1499	10949
1463	10951
1454	10953
1450	10956
1447	10958
1451	10961
1469	10963
1513	10967
1560	10969
1594	10972
1572	10974
1554	10976
1537	10979
1546	10981
1567	10984
1568	10986
1551	10989
1536	10991
1527	10994
1519	10996
1519	10999
1540	11001
1564	11003
1543	11006
1485	11009
1462	11012
1452	11014
1452	11017
1454	11019
1454	11021
1457	11024
1467	11026
1492	11029
1520	11031
1546	11034
1548	11036
1509	11039
1483	11041
1503	11043
1541	11046
1559	11048
1539	11052
1520	11054
1532	11057
1563	11059
1583	11062
1585	11064
1548	11067
1518	11069
1519	11071
1512	11074
1516	11076
1530	11079
1511	11081
1459	11084
1438	11086
1434	11089
1437	11091
1434	11094
1415	11097
1402	11099
1405	11102
1409	11104
1414	11107
1413	11109
1433	11112
1481	11114
1537	11116
1569	11119
1521	11121
1473	11124
1477	11126
1485	11129
1489	11131
1477	11134
1457	11137
1469	11139
1499	11142
1530	11144
1565	11147
1601	11149
1610	11152
1557	11154
1502	11157
1473	11159
1464	11161
1469	11164
1464	11166
1461	11169
1451	11171
1429	11174
1425	11176
1424	11180
1423	11182
1424	11184
1429	11187
1440	11189
1452	11192
1455	11194
1457	11197
1465	11199
1481	11202
1505	11204
1535	11206
1574	11209
1579	11211
1585	11214
1593	11216
1585	11219
1534	11222
1501	11225
1528	11227
1563	11229
1555	11232
1493	11234
1478	11237
1474	11239
1468	11242
1447	11244
1429	11247
1419	11249
1415	11251
1420	11254
1430	11256
1449	11259
1484	11261
1520	11265
1529	11267
1492	11270
1464	11272
1452	11274
1455	11277
1476	11279
1504	11282
1530	11284
1564	11287
1562	11289
1554	11292
1513	11294
1472	11296
1452	11299
1487	11301
1536	11304
1557	11307
1519	11310
1467	11312
1463	11315
1472	11317
1475	11319
1457	11322
1437	11324
1423	11327
1423	11329
1441	11332
1459	11334
1464	11337
1458	11339
1465	11341
1473	11344
1466	11346
1453	11350
1451	11352
1460	11355
1471	11357
1471	11360
1469	11362
1463	11364
1460	11367
1469	11369
1495	11372
1525	11374
1516	11377
1483	11379
1491	11382
1541	11384
1618	11386
1652	11389
1604	11392
1525	11395
1466	11397
1437	11400
1424	11402
1430	11405
1450	11407
1463	11409
1465	11412
1452	11414
1445	11417
1444	11419
1444	11422
1444	11424
1446	11427
1451	11429
1456	11431
1460	11435
1476	11437
1514	11440
1547	11442
1554	11445
1558	11447
1568	11450
1583	11452
1571	11454
1513	11457
1471	11459
1457	11462
1452	11464
1453	11467
1459	11469
1480	11472
1514	11474
1544	11476
1558	11480
1538	11482
1506	11485
1494	11487
1502	11490
1500	11492
1489	11495
1476	11497
1475	11499
1476	11502
1477	11504
1479	11507
1478	11509
1472	11512
1469	11514
1471	11517
1484	11520
1499	11522
1527	11525
1574	11527
1619	11530
1654	11532
1644	11535
1591	11537
1530	11540
1504	11542
1493	11544
1490	11547
1491	11549
1501	11552
1529	11554
1562	11557
1581	11559
1562	11563
1521	11565
1506	11568
1508	11570
1516	11572
1527	11575
1532	11577
1530	11580
1527	11582
1520	11585
1513	11587
1503	11589
1504	11592
1508	11594
1511	11597
1516	11599
1521	11602
1528	11604
1530	11608
1534	11610
1543	11612
1551	11615
1577	11617
1575	11620
1536	11622
1509	11625
1494	11627
1493	11630
1505	11632
1515	11634
1515	11637
1503	11639
1486	11642
1479	11644
1478	11648
1491	11650
1510	11653
1526	11655
1519	11658
1500	11660
1510	11662
1539	11665
1558	11667
1552	11670
1512	11672
1490	11675
1485	11677
1484	11680
1485	11682
1488	11684
1499	11687
1512	11689
1519	11693
1511	11695
1506	11698
1532	11700
1579	11703
1616	11705
1615	11707
1577	11710
1552	11712
1541	11715
1524	11717
1502	11720
1493	11722
1491	11725
1491	11727
1490	11729
1484	11732
1482	11735
1479	11738
1479	11740
1484	11743
1491	11745
1494	11748
1492	11750
1489	11752
1491	11755
1494	11757
1496	11760
1502	11762
1512	11765
1520	11767
1526	11770
1531	11772
1541	11774
1555	11778
1564	11780
1586	11783
1602	11785
1603	11788
1583	11790
1563	11792
1548	11795
1528	11797
1515	11800
1507	11802
1502	11805
1502	11807
1515	11810
1539	11812
1556	11815
1559	11817
1538	11820
1527	11823
1523	11825
1520	11828
1520	11830
1520	11833
1519	11835
1519	11838
1521	11840
1523	11842
1525	11845
1527	11847
1529	11850
1531	11852
1533	11855
1540	11857
1557	11860
1577	11863
1583	11865
1577	11868
1569	11870
1566	11873
1556	11875
1542	11878
1536	11880
1531	11883
1528	11885
1528	11887
1528	11890
1524	11892
1520	11895
1518	11897
1517	11900
1516	11902
1516	11906
1517	11908
1519	11910
1521	11913
1521	11915
1523	11918
1527	11920
1532	11923
1535	11925
1534	11928
1539	11930
1544	11932
1547	11935
1546	11937
1544	11940
1543	11942
1542	11945
1544	11948
1548	11951
1553	11953
1558	11955
1568	11958
1579	11960
1589	11963
1598	11965
1603	11968
1600	11970
1575	11973
1562	11975
1556	11977
1555	11980
1556	11982
1558	11985
1558	11987
1557	11991
1558	11993
1560	11996
1565	11998
1572	12001
1581	12003
1590	12005
1598	12008
1606	12010
1607	12013
1603	12015
1603	12018
1606	12020
1611	12022
1618	12025
1624	12027
1631	12030
1637	12033
1643	12036
1648	12038
1651	12041
1656	12043
1661	12045
1667	12048
1673	12050
1684	12053
1695	12055
1703	12058
1706	12060
1710	12063
1711	12065
1704	12067
1697	12070
1695	12072
1696	12076
1695	12078
1692	12081
1692	12083
1692	12086
1693	12088
1688	12090
1678	12093
1663	12095
1651	12098
1642	12100
1634	12103
1626	12105
1619	12108
1612	12110
1605	12113
1599	12115
1593	12118
1585	12121
1576	12123
1569	12126
1563	12128
1557	12131
1550	12133
1543	12136
1536	12138
1528	12140
1521	12143
1515	12145
1510	12148
1506	12150
1502	12153
1496	12155
1490	12158
1486	12161
1482	12163
1475	12166
1465	12168
1457	12171
1451	12173
1446	12176
1443	12178
1441	12181
1439	12183
1436	12185
1431	12188
1424	12190
1419	12193
1415	12195
1412	12198
1409	12200
1407	12204
1405	12206
1404	12208
1403	12211
1402	12213
1400	12216
1399	12218
1399	12221
1400	12223
1401	12226
1396	12228
1389	12230
1385	12233
1383	12235
1382	12238
1383	12240
1386	12243
1388	12246
1391	12249
1390	12251
1390	12253
1387	12256
1384	12258
1385	12261
1387	12263
1387	12266
1384	12268
1378	12271
1375	12273
1375	12275
1375	12278
1376	12280
1377	12283
1377	12285
1378	12289
1379	12291
1380	12294
1381	12296
1382	12298
1383	12301
1384	12303
1385	12306
1386	12308
1387	12311
1388	12313
1388	12316
1390	12318
1390	12320
1391	12323
1392	12325
1392	12328
1392	12331
1393	12334
1393	12336
1393	12339
1395	12341
1399	12343
1403	12346
1406	12348
1405	12351
1403	12353
1404	12356
1407	12358
1409	12361
1408	12363
1407	12365
1408	12368
1407	12370
1405	12374
1404	12376
1403	12379
1403	12381
1404	12384
1405	12386
1407	12388
1413	12391
1417	12393
1418	12396
1414	12398
1410	12401
1411	12403
1412	12406
1414	12408
1416	12410
1418	12413
1420	12416
1422	12419
1422	12421
1424	12424
1426	12426
1429	12429
1431	12431
1433	12433
1435	12436
1437	12438
1439	12441
1442	12443
1444	12446
1448	12448
1452	12451
1455	12453
1455	12455
1453	12459
1454	12461
1463	12464
1471	12466
1473	12469
1469	12471
1463	12474
1459	12476
1462	12478
1467	12481
1468	12483
1466	12486
1460	12488
1456	12491
1454	12493
1453	12496
1454	12498
1454	12500
1455	12504
1455	12506
1457	12509
1459	12511
1461	12514
1462	12516
1463	12519
1464	12521
1465	12523
1467	12526
1469	12528
1470	12531
1471	12533
1472	12536
1472	12538
1473	12541
1475	12544
1477	12546
1478	12549
1480	12551
1481	12554
1482	12556
1489	12559
1498	12561
1503	12564
1501	12566
1494	12568
1486	12571
1482	12573
1481	12576
1483	12578
1487	12581
1489	12583
1489	12587
1485	12589
1482	12592
1482	12594
1483	12596
1487	12599
1493	12601
1498	12604
1500	12606
1498	12609
1496	12611
1494	12614
1494	12616
1493	12618
1492	12621
1492	12623
1492	12626
1493	12628
1494	12632
1495	12634
1495	12637
1496	12639
1496	12641
1497	12644
1497	12646
1498	12649
1498	12651
1500	12654
1504	12656
1509	12659
1511	12661
1512	12663
1510	12666
1508	12668
1507	12672
1506	12674
1505	12677
1503	12679
1501	12682
1501	12684
1501	12686
1501	12689
1503	12691
1505	12694
1507	12696
1508	12699
1509	12701
1509	12704
1510	12706
1511	12708
1512	12711
1514	12713
1514	12717
1512	12719
1508	12722
1506	12724
1505	12727
1505	12729
1505	12731
1505	12734
1508	12736
1513	12739
1515	12741
1513	12744
1509	12746
1506	12749
1506	12751
1507	12753
1509	12756
1509	12759
1509	12762
1511	12764
1512	12767
1512	12769
1511	12772
1508	12774
1508	12777
1509	12779
1510	12781
1510	12784
1509	12786
1506	12789
1506	12791
1506	12794
1507	12796
1508	12800
1508	12802
1509	12804
1510	12807
1511	12809
1513	12812
1514	12814
1514	12817
1513	12819
1513	12822
1513	12824
1513	12826
1513	12829
1513	12831
1513	12834
1512	12836
1510	12839
1510	12841
1510	12845
1510	12847
1511	12849
1511	12852
1511	12854
1509	12857
1506	12859
1504	12862
1507	12864
1511	12867
1514	12869
1515	12871
1516	12874
1516	12876
1512	12879
1506	12881
1498	12884
1492	12887
1486	12889
1482	12892
1481	12894
1479	12897
1479	12899
1478	12902
1477	12904
1476	12907
1476	12909
1475	12911
1475	12914
1474	12916
1475	12919
1477	12921
1477	12924
1477	12926
1474	12930
1473	12932
1472	12934
1472	12937
1474	12939
1477	12942
1479	12944
1478	12947
1477	12949
1477	12952
1477	12954
1477	12956
1478	12959
1480	12961
1480	12964
1480	12966
1479	12969
1480	12972
1482	12975
1484	12977
1484	12979
1484	12982
1485	12984
1487	12987
1491	12989
1496	12992
1502	12994
1507	12997
1509	12999
1507	13001
1504	13004
1503	13006
1504	13009
1506	13011
1510	13015
1514	13017
1517	13020
1519	13022
1522	13024
1524	13027
1529	13029
1534	13032
1539	13034
1544	13037
1545	13039
1547	13042
1548	13044
1552	13046
1556	13049
1561	13051
1567	13054
1573	13057
1578	13060
1580	13062
1583	13065
1585	13067
1587	13069
1588	13072
1591	13074
1596	13077
1599	13079
1600	13082
1597	13084
1595	13087
1595	13089
1594	13091
1593	13094
1593	13096
1594	13100
1595	13102
1597	13105
1598	13107
1599	13110
1600	13112
1603	13114
1605	13117
1605	13119
1603	13122
1599	13124
1596	13127
1593	13129
1590	13132
1588	13134
1587	13136
1588	13139
1588	13142
1586	13145
1583	13147
1581	13150
1578	13152
1576	13155
1574	13157
1573	13159
1572	13162
1570	13164
1568	13167
1566	13169
1563	13172
1561	13174
1559	13177
1558	13179
1556	13181
1555	13185
1553	13187
1552	13190
1550	13192
1549	13195
1547	13197
1546	13200
1545	13202
1543	13205
1543	13207
1544	13209
1545	13212
1546	13214
1545	13217
1541	13219
1539	13222
1541	13224
1542	13227
1541	13230
1539	13232
1537	13235
1535	13237
1532	13240
1529	13242
1526	13245
1524	13247
1522	13249
1521	13252
1519	13254
1517	13257
1514	13259
1513	13262
1512	13264
1511	13267
1510	13270
1510	13272
1510	13275
1509	13277
1508	13280
1506	13282
1505	13285
1505	13287
1505	13290
1506	13292
1506	13294
1505	13297
1504	13299
1505	13302
1505	13304
1504	13307
1503	13309
1500	13313
1499	13315
1497	13317
1497	13320
1498	13322
1499	13325
1499	13327
1498	13330
1497	13332
1495	13335
1492	13337
1490	13339
1489	13342
1490	13344
1491	13347
1493	13349
1496	13352
1496	13355
1494	13358
1492	13360
1492	13362
1495	13365
1494	13367
1491	13370
1487	13372
1484	13375
1481	13377
1480	13380
1479	13382
1478	13384
1478	13387
1478	13389
1478	13392
1484	13394
1491	13398
1491	13400
1486	13403
1479	13405
1474	13407
1472	13410
1470	13412
1470	13415
1469	13417
1469	13420
1468	13422
1467	13425
1467	13427
1467	13429
1467	13432
1466	13434
1466	13437
1467	13440
1469	13443
1471	13445
1473	13448
1473	13450
1472	13452
1471	13455
1467	13457
1464	13460
1463	13462
1463	13465
1463	13467
1463	13470
1463	13472
1462	13474
1462	13477
1462	13479
1463	13483
1463	13485
1463	13488
1463	13490
1463	13493
1463	13495
1464	13497
1465	13500
1467	13502
1473	13505
1479	13507
1482	13510
1478	13512
1472	13515
1468	13517
1466	13519
1467	13522
1469	13524
1469	13528
1469	13530
1470	13533
1470	13535
1468	13538
1468	13540
1468	13542
1468	13545
1467	13547
1467	13550
1466	13552
1467	13555
1467	13557
1467	13560
1467	13562
1468	13564
1469	13568
1470	13570
1471	13573
1471	13575
1470	13578
1470	13580
1469	13583
1470	13585
1472	13587
1474	13590
1474	13592
1474	13595
1474	13597
1474	13600
1475	13602
1479	13605
1483	13607
1488	13609
1490	13613
1488	13615
1485	13618
1481	13620
1477	13623
1476	13625
1475	13628
1475	13630
1475	13632
1475	13635
1475	13637
1475	13640
1476	13642
1476	13645
1477	13647