1593	2
1594	5
1595	7
1595	9
1595	11
1594	14
1594	16
1593	18
1593	20
1593	23
1595	25
1596	27
1597	30
1597	32
1596	34
1595	36
1595	39
1596	41
1596	44
1596	47
1596	49
1596	51
1595	53
1594	56
1592	58
1590	60
1590	63
1589	65
1589	67
1588	70
1588	72
1588	74
1587	76
1587	79
1587	81
1588	83
1590	87
1591	89
1592	91
1591	93
1590	96
1589	98
1589	100
1590	103
1590	105
1591	107
1592	110
1592	112
1592	114
1591	117
1588	119
1586	121
1586	124
1586	126
1586	129
1586	132
1586	134
1586	136
1586	139
1586	141
1586	144
1585	146
1585	148
1584	151
1583	153
1583	155
1581	158
1581	160
1580	162
1579	165
1580	167
1580	169
1580	173
1580	175
1580	177
1580	180
1580	182
1579	184
1577	187
1577	189
1577	191
1578	194
1580	196
1582	198
1583	201
1583	203
1582	205
1582	208
1581	210
1579	214
1577	216
1576	218
1576	221
1574	223
1574	225
1573	228
1573	230
1573	232
1573	235
1571	237
1570	239
1568	242
1567	244
1568	246
1570	249
1571	251
1572	253
1573	257
1573	259
1573	261
1572	264
1572	266
1572	268
1572	271
1573	273
1573	275
1572	278
1570	280
1569	283
1568	285
1567	287
1567	290
1566	292
1566	294
1566	297
1565	300
1565	302
1565	305
1566	307
1566	309
1568	312
1570	314
1570	316
1569	319
1568	321
1566	323
1564	326
1562	328
1560	330
1561	333
1561	335
1560	337
1560	340
1561	343
1562	345
1563	348
1564	350
1561	353
1558	355
1557	357
1558	360
1559	362
1561	364
1563	367
1563	369
1561	371
1559	374
1558	376
1559	378
1560	381
1560	384
1560	386
1560	389
1560	391
1560	393
1560	396
1560	398
1559	400
1558	403
1558	405
1559	407
1560	410
1561	412
1561	414
1561	417
1562	419
1563	421
1563	424
1564	427
1565	430
1565	432
1564	434
1563	437
1561	439
1560	441
1559	444
1558	446
1558	448
1557	451
1557	453
1557	455
1556	458
1556	460
1556	462
1557	465
1557	467
1558	470
1558	473
1559	475
1561	477
1562	480
1563	482
1560	484
1557	487
1556	489
1556	491
1557	494
1560	496
1563	499
1564	501
1565	503
1563	506
1560	508
1558	510
1556	514
1555	516
1556	518
1557	521
1556	523
1556	525
1556	528
1555	530
1555	532
1555	535
1554	537
1554	539
1554	542
1554	544
1554	546
1554	549
1554	551
1554	553
1554	557
1554	559
1554	561
1555	564
1554	566
1553	569
1551	571
1550	573
1551	576
1553	578
1555	580
1555	583
1553	585
1550	587
1549	590
1550	592
1552	594
1553	598
1554	600
1553	602
1554	605
1554	607
1554	609
1553	612
1553	614
1552	616
1551	619
1551	621
1552	623
1553	626
1555	628
1556	630
1555	633
1552	635
1550	637
1549	641
1550	643
1550	646
1549	648
1549	650
1548	653
1548	655
1548	657
1548	660
1548	662
1548	664
1547	667
1547	669
1550	671
1551	674
1551	676
1550	678
1550	681
1550	684
1550	686
1551	689
1552	691
1553	693
1555	696
1555	698
1552	700
1547	703
1545	705
1542	707
1541	710
1543	712
1545	715
1546	717
1546	719
1545	722
1544	724
1544	727
1544	730
1544	732
1545	734
1545	737
1546	739
1546	741
1546	744
1547	746
1547	748
1547	751
1547	753
1546	755
1546	758
1545	760
1545	762
1545	765
1545	768
1545	770
1544	773
1544	775
1544	777
1545	780
1546	782
1544	785
1541	787
1540	789
1540	792
1541	794
1542	796
1542	799
1543	801
1542	803
1541	806
1538	808
1537	811
1538	814
1538	816
1539	818
1540	821
1539	823
1537	825
1533	828
1532	830
1533	832
1534	835
1534	837
1534	839
1534	842
1534	844
1534	846
1535	849
1534	851
1532	855
1528	857
1526	859
1527	862
1530	864
1532	866
1533	869
1530	871
1526	873
1523	876
1524	878
1527	880
1529	883
1531	885
1532	887
1534	890
1536	892
1534	894
1532	898
1531	900
1532	902
1533	905
1533	907
1533	909
1532	912
1532	914
1532	916
1532	919
1533	921
1532	923
1532	926
1532	928
1531	931
1530	933
1528	935
1526	939
1524	941
1522	943
1523	946
1524	948
1525	950
1526	953
1526	955
1525	957
1523	960
1522	962
1521	964
1524	967
1526	969
1527	971
1527	974
1526	976
1527	978
1524	982
1519	984
1513	986
1514	989
1520	991
1535	993
1556	996
1568	998
1566	1001
1555	1003
1541	1005
1529	1008
1523	1010
1517	1012
1513	1015
1508	1017
1501	1020
1495	1022
1490	1025
1487	1028
1482	1030
1479	1033
1482	1035
1485	1037
1489	1040
1495	1042
1505	1045
1518	1047
1526	1049
1528	1052
1523	1054
1521	1057
1526	1059
1531	1061
1526	1064
1520	1067
1514	1070
1506	1072
1499	1074
1501	1077
1510	1079
1518	1082
1520	1084
1523	1086
1526	1089
1529	1091
1529	1094
1530	1096
1537	1098
1547	1101
1544	1103
1527	1105
1509	1108
1501	1111
1502	1114
1516	1116
1530	1118
1551	1121
1565	1123
1569	1126
1557	1128
1537	1130
1517	1133
1504	1135
1501	1138
1504	1140
1502	1142
1499	1145
1503	1147
1523	1150
1538	1153
1549	1155
1548	1158
1535	1160
1526	1163
1524	1165
1531	1167
1538	1170
1545	1172
1548	1175
1547	1177
1549	1179
1552	1182
1543	1184
1532	1186
1524	1189
1524	1191
1525	1195
1527	1197
1526	1199
1524	1202
1523	1204
1528	1207
1529	1209
1522	1211
1528	1214
1551	1216
1576	1219
1601	1221
1621	1223
1628	1226
1611	1228
1583	1231
1557	1233
1548	1235
1547	1239
1553	1241
1566	1244
1577	1246
1578	1248
1568	1251
1561	1253
1560	1256
1582	1258
1616	1260
1642	1263
1647	1265
1649	1267
1651	1270
1655	1272
1648	1275
1637	1277
1632	1280
1620	1283
1606	1285
1581	1288
1550	1290
1532	1292
1512	1295
1498	1297
1493	1300
1499	1302
1516	1304
1540	1307
1562	1309
1577	1312
1562	1314
1529	1316
1506	1319
1494	1321
1484	1325
1489	1327
1513	1329
1541	1332
1564	1334
1565	1336
1564	1339
1552	1341
1538	1344
1528	1346
1527	1348
1533	1351
1537	1353
1530	1356
1515	1358
1502	1360
1494	1363
1492	1366
1495	1369
1496	1371
1497	1373
1498	1376
1500	1378
1501	1381
1501	1383
1494	1385
1492	1388
1506	1390
1523	1393
1532	1395
1527	1397
1528	1400
1531	1402
1534	1405
1553	1408
1573	1410
1584	1413
1580	1415
1551	1417
1552	1420
1565	1422
1574	1425
1581	1427
1587	1429
1592	1432
1592	1434
1575	1437
1535	1439
1514	1441
1514	1444
1530	1446
1542	1449
1535	1452
1517	1454
1511	1457
1522	1459
1529	1462
1528	1464
1530	1466
1536	1469
1544	1471
1546	1474
1530	1476
1509	1478
1490	1481
1489	1483
1494	1486
1512	1488
1543	1490
1595	1494
1627	1496
1622	1498
1582	1501
1531	1503
1500	1506
1503	1508
1521	1510
1548	1513
1564	1515
1564	1518
1547	1520
1516	1522
1494	1525
1496	1527
1518	1530
1534	1532
1524	1534
1491	1538
1463	1540
1453	1543
1454	1545
1452	1547
1450	1550
1442	1552
1436	1555
1447	1557
1462	1559
1477	1562
1502	1564
1531	1567
1533	1569
1508	1571
1498	1574
1500	1576
1519	1579
1542	1582
1576	1584
1593	1587
1573	1589
1558	1591
1543	1594
1533	1596
1539	1599
1556	1601
1556	1603
1532	1606
1512	1608
1508	1611
1516	1613
1520	1615
1508	1618
1484	1620
1469	1624
1462	1626
1472	1628
1494	1631
1543	1633
1582	1636
1573	1638
1561	1640
1541	1643
1506	1645
1492	1648
1498	1650
1511	1652
1524	1655
1538	1657
1551	1659
1558	1662
1547	1665
1539	1668
1544	1670
1556	1672
1560	1675
1546	1677
1502	1680
1489	1682
1499	1684
1505	1687
1497	1689
1487	1692
1491	1694
1497	1696
1498	1699
1492	1701
1515	1704
1549	1707
1579	1709
1585	1712
1577	1714
1562	1717
1546	1719
1552	1721
1566	1724
1568	1726
1552	1729
1523	1731
1493	1733
1477	1736
1464	1738
1465	1740
1475	1743
1500	1745
1528	1748
1541	1751
1538	1753
1514	1756
1514	1758
1525	1761
1543	1763
1552	1765
1542	1768
1517	1770
1503	1773
1502	1775
1513	1777
1510	1780
1507	1782
1518	1785
1522	1787
1520	1789
1522	1793
1554	1795
1585	1798
1587	1800
1550	1802
1519	1805
1489	1807
1474	1810
1474	1812
1484	1814
1512	1817
1527	1819
1521	1821
1501	1824
1484	1826
1479	1829
1477	1831
1471	1833
1469	1837
1502	1839
1550	1842
1581	1844
1561	1846
1506	1849
1469	1851
1449	1854
1452	1856
1474	1858
1510	1861
1528	1863
1524	1866
1534	1868
1550	1870
1530	1873
1493	1875
1478	1879
1481	1881
1520	1883
1558	1886
1590	1888
1569	1891
1546	1893
1529	1895
1513	1898
1512	1900
1504	1902
1495	1905
1493	1907
1497	1910
1502	1912
1509	1914
1534	1917
1535	1920
1495	1923
1469	1925
1486	1927
1507	1930
1506	1932
1483	1935
1462	1937
1451	1939
1456	1942
1476	1944
1497	1947
1504	1949
1485	1951
1464	1954
1476	1956
1533	1959
1592	1961
1601	1964
1557	1967
1526	1969
1487	1972
1474	1974
1494	1976
1529	1979
1551	1981
1527	1983
1502	1986
1509	1988
1529	1991
1547	1993
1541	1995
1526	1998
1543	2000
1560	2003
1547	2006
1511	2008
1488	2011
1477	2013
1475	2016
1491	2018
1513	2020
1527	2023
1520	2025
1509	2028
1504	2030
1506	2032
1521	2035
1529	2037
1526	2040
1509	2042
1489	2044
1482	2048
1495	2050
1519	2052
1562	2055
1571	2057
1545	2060
1520	2062
1509	2064
1503	2067
1510	2069
1522	2072
1538	2074
1576	2076
1581	2079
1557	2081
1519	2084
1493	2086
1501	2088
1510	2092
1489	2094
1487	2097
1496	2099
1506	2101
1525	2104
1520	2106
1509	2109
1497	2111
1478	2113
1451	2116
1441	2118
1443	2121
1483	2123
1538	2125
1587	2128
1586	2130
1565	2132
1533	2136
1511	2138
1491	2141
1510	2143
1534	2145
1548	2148
1532	2150
1500	2153
1509	2155
1536	2157
1541	2160
1528	2162
1519	2165
1532	2167
1537	2169
1534	2172
1538	2174
1533	2178
1515	2180
1489	2182
1489	2185
1505	2187
1523	2190
1533	2192
1523	2194
1498	2197
1486	2199
1484	2202
1479	2204
1494	2206
1559	2209
1617	2211
1604	2214
1554	2216
1501	2219
1482	2222
1476	2224
1473	2226
1467	2229
1471	2231
1521	2234
1591	2236
1628	2238
1610	2241
1566	2243
1497	2246
1459	2248
1459	2250
1471	2253
1486	2255
1490	2258
1489	2260
1525	2263
1570	2266
1598	2268
1557	2271
1504	2273
1467	2275
1444	2278
1440	2280
1446	2283
1467	2285
1493	2287
1509	2290
1500	2292
1471	2294
1492	2297
1531	2299
1556	2302
1543	2305
1515	2307
1482	2310
1482	2312
1499	2315
1510	2317
1500	2319
1490	2322
1488	2324
1511	2327
1560	2329
1585	2331
1530	2334
1477	2336
1452	2339
1440	2341
1441	2343
1452	2347
1488	2349
1539	2352
1567	2354
1563	2356
1554	2359
1546	2361
1542	2364
1523	2366
1504	2368
1482	2371
1461	2373
1467	2375
1488	2378
1514	2380
1534	2383
1540	2385
1538	2387
1518	2391
1496	2393
1469	2396
1467	2398
1481	2400
1517	2403
1561	2405
1571	2408
1527	2410
1494	2412
1504	2415
1524	2417
1538	2420
1548	2422
1558	2424
1571	2427
1572	2429
1516	2433
1479	2435
1475	2437
1476	2440
1492	2442
1506	2445
1508	2447
1499	2449
1494	2452
1499	2454
1496	2456
1473	2459
1454	2461
1462	2464
1496	2466
1541	2468
1551	2471
1514	2473
1503	2477
1500	2479
1506	2481
1502	2484
1501	2486
1501	2489
1479	2491
1465	2493
1480	2496
1511	2498
1531	2501
1517	2503
1505	2505
1516	2508
1537	2510
1530	2513
1510	2515
1512	2518
1524	2521
1517	2523
1517	2526
1529	2528
1536	2530
1506	2533
1479	2535
1462	2537
1450	2540
1446	2542
1447	2545
1458	2547
1502	2549
1575	2552
1631	2554
1642	2557
1596	2560
1552	2562
1515	2565
1496	2567
1502	2570
1511	2572
1499	2574
1479	2577
1483	2579
1489	2582
1505	2584
1525	2586
1562	2589
1570	2591
1548	2594
1528	2596
1509	2598
1488	2601
1461	2604
1455	2607
1463	2609
1475	2611
1482	2614
1485	2616
1495	2618
1524	2621
1553	2623
1545	2626
1520	2628
1499	2630
1485	2633
1481	2635
1484	2638
1498	2640
1516	2642
1542	2646
1566	2648
1609	2651
1630	2653
1609	2655
1556	2658
1535	2660
1542	2663
1546	2665
1550	2667
1545	2670
1535	2672
1532	2675
1508	2677
1495	2679
1505	2682
1533	2684
1544	2688
1509	2690
1485	2692
1475	2695
1471	2697
1480	2699
1509	2702
1536	2704
1558	2707
1535	2709
1516	2711
1506	2714
1513	2716
1522	2719
1544	2721
1577	2723
1614	2726
1642	2728
1626	2732
1586	2734
1542	2736
1515	2739
1529	2741
1555	2744
1573	2746
1558	2748
1532	2751
1543	2753
1573	2756
1604	2758
1612	2760
1591	2763
1526	2765
1476	2768
1458	2770
1453	2772
1466	2776
1477	2778
1474	2781
1455	2783
1446	2785
1445	2788
1448	2790
1460	2792
1486	2795
1517	2797
1545	2800
1559	2802
1590	2804
1621	2807
1626	2809
1591	2812
1553	2814
1521	2817
1532	2820
1573	2822
1631	2825
1656	2827
1627	2829
1556	2832
1505	2834
1494	2837
1501	2839
1519	2841
1525	2844
1516	2846
1510	2849
1533	2851
1557	2853
1555	2856
1517	2859
1482	2862
1464	2864
1457	2866
1473	2869
1506	2871
1528	2873
1532	2876
1518	2878
1513	2881
1509	2883
1523	2885
1535	2888
1541	2890
1506	2893
1495	2895
1501	2897
1522	2900
1538	2903
1557	2906
1568	2908
1570	2910
1534	2913
1495	2915
1511	2918
1541	2920
1545	2922
1533	2925
1523	2927
1533	2930
1563	2932
1585	2934
1575	2937
1545	2939
1528	2942
1519	2945
1519	2947
1522	2950
1542	2952
1557	2954
1546	2957
1522	2959
1495	2962
1513	2964
1552	2966
1596	2969
1610	2971
1593	2974
1572	2976
1560	2978
1559	2981
1538	2983
1505	2987
1477	2989
1474	2991
1490	2994
1521	2996
1529	2999
1532	3001
1528	3003
1512	3006
1490	3008
1471	3011
1471	3013
1484	3015
1506	3018
1518	3020
1511	3023
1496	3025
1489	3027
1480	3031
1486	3033
1479	3035
1468	3038
1469	3040
1501	3043
1537	3045
1571	3047
1580	3050
1590	3052
1577	3055
1538	3057
1517	3059
1515	3062
1533	3064
1547	3067
1522	3069
1492	3072
1471	3075
1446	3077
1446	3080
1459	3082
1482	3084
1502	3087
1520	3089
1545	3092
1563	3094
1548	3096
1502	3099
1482	3101
1483	3104
1518	3106
1559	3108
1571	3111
1535	3113
1502	3116
1491	3119
1494	3121
1503	3124
1522	3126
1536	3128
1564	3131
1562	3133
1575	3136
1600	3138
1585	3140
1547	3143
1512	3145
1493	3148
1489	3150
1473	3152
1437	3155
1424	3158
1423	3161
1421	3163
1422	3165
1440	3168
1478	3170
1502	3173
1503	3175
1505	3177
1518	3180
1525	3182
1519	3185
1501	3187
1485	3189
1492	3192
1488	3194
1476	3197
1489	3200
1525	3202
1564	3205
1584	3207
1564	3209
1559	3212
1560	3214
1564	3217
1540	3219
1487	3221
1453	3224
1458	3226
1500	3229
1550	3231
1580	3233
1555	3236
1491	3238
1449	3241
1437	3244
1434	3246
1441	3249
1464	3251
1501	3254
1514	3256
1496	3258
1482	3261
1498	3263
1516	3266
1508	3268
1489	3270
1468	3273
1478	3275
1501	3278
1513	3280
1496	3282
1479	3286
1487	3288
1514	3290
1528	3293
1516	3295
1517	3298
1547	3300
1586	3302
1585	3305
1545	3307
1491	3310
1464	3312
1450	3314
1443	3317
1461	3319
1483	3322
1491	3324
1493	3326
1476	3330
1454	3332
1431	3335
1427	3337
1441	3339
1474	3342
1509	3344
1503	3347
1484	3349
1501	3351
1536	3354
1553	3356
1539	3359
1516	3361
1532	3363
1569	3366
1590	3368
1559	3371
1509	3374
1491	3376
1511	3379
1532	3381
1536	3383
1525	3386
1532	3388
1566	3391
1559	3393
1494	3395
1456	3398
1472	3400
1495	3403
1510	3405
1497	3407
1448	3410
1431	3412
1431	3416
1444	3418
1463	3420
1480	3423
1501	3425
1513	3428
1505	3430
1507	3432
1517	3435
1529	3437
1531	3440
1511	3442
1486	3444
1476	3447
1474	3449
1480	3451
1480	3454
1466	3457
1452	3460
1454	3462
1460	3464
1463	3467
1462	3469
1455	3472
1451	3474
1456	3476
1454	3479
1451	3481
1441	3484
1454	3486
1477	3488
1495	3491
1499	3493
1492	3496
1485	3499
1486	3501
1497	3504
1512	3506
1508	3509
1506	3511
1522	3513
1536	3516
1546	3518
1538	3521
1515	3523
1482	3525
1451	3528
1461	3530
1501	3532
1551	3535
1560	3537
1518	3540
1482	3543
1468	3545
1485	3548
1522	3550
1544	3553
1542	3555
1506	3557
1477	3560
1467	3562
1461	3565
1466	3567
1472	3569
1478	3572
1462	3574
1429	3577
1419	3579
1427	3581
1455	3585
1487	3587
1502	3590
1498	3592
1479	3594
1473	3597
1450	3599
1426	3602
1429	3604
1448	3606
1455	3609
1441	3611
1416	3613
1412	3616
1441	3618
1489	3621
1518	3623
1511	3625
1459	3629
1438	3631
1441	3634
1452	3636
1462	3638
1477	3641
1493	3643
1503	3646
1508	3648
1513	3650
1518	3653
1527	3655
1535	3658
1545	3660
1584	3662
1620	3665
1614	3667
1560	3671
1528	3673
1513	3675
1499	3678
1493	3680
1506	3683
1514	3685
1516	3687
1511	3690
1500	3692
1496	3694
1480	3697
1470	3699
1473	3702
1495	3704
1532	3706
1540	3709
1507	3712
1493	3715
1488	3717
1483	3719
1488	3722
1497	3724
1510	3727
1505	3729
1507	3731
1542	3734
1575	3736
1575	3739
1541	3741
1525	3743
1536	3746
1556	3748
1575	3751
1594	3753
1576	3756
1559	3759
1535	3761
1534	3764
1550	3766
1557	3768
1540	3771
1519	3773
1501	3775
1483	3778
1474	3780
1467	3783
1457	3785
1451	3787
1453	3790
1457	3792
1460	3795
1462	3798
1473	3800
1474	3803
1475	3805
1475	3808
1470	3810
1469	3812
1488	3815
1529	3817
1568	3820
1584	3822
1567	3824
1543	3827
1540	3829
1542	3832
1539	3834
1534	3836
1523	3840
1540	3842
1567	3845
1574	3847
1581	3849
1555	3852
1525	3854
1499	3856
1474	3859
1465	3861
1477	3864
1488	3866
1489	3868
1466	3871
1457	3873
1458	3876
1464	3878
1473	3880
1479	3884
1503	3886
1539	3889
1560	3891
1556	3893
1559	3896
1568	3898
1575	3901
1565	3903
1544	3905
1550	3908
1561	3910
1570	3913
1576	3915
1575	3917
1559	3920
1534	3922
1510	3926
1499	3928
1488	3930
1486	3933
1495	3935
1510	3938
1524	3940
1525	3942
1515	3945
1523	3947
1537	3949
1547	3952
1549	3954
1534	3957
1515	3959
1526	3961
1536	3964
1531	3966
1518	3970
1509	3972
1517	3974
1554	3977
1606	3979
1655	3982
1635	3984
1565	3986
1504	3989
1484	3991
1491	3994
1503	3996
1508	3998
1504	4001
1488	4003
1476	4006
1478	4008
1502	4011
1539	4014
1568	4016
1547	4019
1510	4021
1481	4023
1463	4026
1475	4028
1500	4030
1524	4033
1527	4035
1512	4038
1502	4040
1501	4042
1520	4045
1554	4047
1576	4050
1556	4052
1521	4055
1483	4058
1469	4060
1476	4063
1500	4065
1540	4067
1561	4070
1533	4072
1481	4075
1454	4077
1459	4079
1475	4082
1490	4084
1488	4087
1491	4089
1485	4091
1463	4094
1441	4097
1432	4100
1442	4102
1469	4104
1494	4107
1501	4109
1482	4111
1469	4114
1475	4116
1492	4119
1518	4121
1544	4123
1557	4126
1551	4128
1548	4131
1554	4133
1559	4135
1530	4139
1502	4141
1516	4144
1537	4146
1532	4148
1506	4151
1487	4153
1492	4156
1506	4158
1515	4160
1525	4163
1536	4165
1521	4168
1471	4170
1444	4172
1437	4175
1431	4177
1425	4179
1421	4183
1426	4185
1442	4188
1477	4190
1535	4192
1571	4195
1571	4197
1535	4200
1496	4202
1488	4204
1513	4207
1570	4209
1630	4212
1631	4214
1586	4216
1549	4219
1521	4221
1523	4225
1530	4227
1506	4229
1483	4232
1452	4234
1445	4237
1448	4239
1462	4241
1506	4244
1565	4246
1601	4249
1601	4251
1568	4253
1510	4256
1480	4258
1469	4260
1467	4263
1465	4265
1462	4269
1467	4271
1484	4273
1513	4276
1518	4278
1516	4281
1511	4283
1521	4285
1554	4288
1572	4290
1594	4293
1595	4295
1621	4297
1620	4300
1572	4302
1556	4305
1570	4307
1600	4310
1618	4313
1575	4315
1547	4318
1520	4320
1528	4322
1569	4325
1591	4327
1569	4330
1527	4332
1491	4334
1495	4337
1504	4339
1498	4341
1470	4344
1460	4346
1458	4349
1461	4352
1467	4354
1466	4357
1462	4359
1456	4362
1463	4364
1502	4366
1560	4369
1597	4371
1589	4374
1563	4376
1545	4378
1531	4381
1518	4383
1540	4386
1568	4388
1573	4390
1544	4393
1495	4396
1463	4399
1459	4401
1470	4403
1499	4406
1532	4408
1546	4411
1538	4413
1502	4415
1474	4418
1456	4420
1437	4422
1443	4425
1468	4427
1490	4430
1513	4432
1529	4434
1532	4438
1508	4440
1502	4443
1482	4445
1469	4447
1475	4450
1531	4452
1594	4455
1632	4457
1625	4459
1587	4462
1579	4464
1564	4467
1528	4469
1505	4471
1513	4474
1531	4476
1558	4480
1543	4482
1511	4484
1496	4487
1490	4489
1489	4492
1472	4494
1454	4496
1443	4499
1449	4501
1460	4503
1487	4506
1518	4508
1521	4511
1510	4513
1499	4515
1485	4518
1486	4520
1494	4524
1519	4526
1547	4528
1570	4531
1583	4533
1586	4536
1566	4538
1510	4540
1486	4543
1506	4545
1547	4548
1564	4550
1530	4552
1487	4555
1463	4557
1458	4560
1456	4562
1454	4564
1464	4568
1473	4570
1488	4573
1520	4575
1554	4577
1561	4580
1558	4582
1544	4584
1543	4587
1538	4589
1538	4592
1511	4594
1481	4596
1477	4599
1498	4601
1537	4604
1571	4606
1574	4609
1527	4612
1487	4614
1472	4617
1485	4619
1521	4621
1550	4624
1545	4626
1532	4629
1518	4631
1520	4633
1539	4636
1548	4638
1519	4641
1486	4643
1485	4645
1495	4648
1492	4651
1466	4654
1450	4656
1439	4658
1447	4661
1476	4663
1510	4665
1524	4668
1506	4670
1481	4673
1487	4675
1515	4677
1538	4680
1536	4682
1515	4685
1493	4687
1512	4689
1549	4692
1589	4695
1600	4698
1574	4700
1543	4702
1528	4705
1543	4707
1566	4710
1561	4712
1536	4714
1486	4717
1447	4719
1438	4722
1465	4724
1502	4726
1520	4729
1484	4731
1459	4734
1460	4737
1460	4739
1460	4742
1482	4744
1519	4746
1534	4749
1518	4751
1486	4754
1470	4756
1499	4758
1542	4761
1565	4763
1543	4766
1500	4768
1495	4770
1502	4773
1507	4775
1499	4779
1486	4781
1496	4783
1525	4786
1554	4788
1575	4791
1571	4793
1550	4795
1519	4798
1484	4800
1502	4803
1546	4805
1583	4807
1553	4810
1487	4812
1478	4815
1495	4817
1516	4819
1524	4823
1496	4825
1483	4827
1475	4830
1466	4832
1463	4835
1471	4837
1519	4839
1584	4842
1592	4844
1545	4847
1501	4849
1505	4851
1503	4854
1482	4856
1467	4859
1480	4861
1503	4864
1519	4867
1516	4869
1497	4872
1493	4874
1482	4876
1481	4879
1487	4881
1510	4884
1557	4886
1593	4888
1610	4891
1589	4893
1539	4896
1528	4898
1516	4900
1497	4903
1472	4905
1455	4908
1457	4911
1508	4913
1599	4916
1663	4918
1655	4920
1604	4923
1545	4925
1506	4928
1470	4930
1461	4932
1523	4935
1598	4937
1632	4940
1613	4942
1528	4944
1498	4947
1492	4950
1492	4953
1495	4955
1498	4957
1493	4960
1496	4962
1503	4965
1505	4967
1501	4969
1491	4972
1473	4974
1482	4977
1491	4979
1489	4981
1498	4984
1519	4986
1551	4988
1559	4992
1570	4994
1597	4997
1612	4999
1597	5001
1553	5004
1530	5006
1534	5009
1565	5011
1593	5013
1580	5016
1555	5018
1523	5021
1524	5023
1520	5025
1503	5028
1480	5030
1473	5033
1491	5036
1514	5038
1531	5041
1538	5043
1539	5046
1520	5048
1489	5050
1477	5053
1478	5055
1483	5058
1491	5060
1486	5062
1491	5065
1504	5067
1521	5069
1529	5072
1503	5074
1471	5078
1460	5080
1457	5082
1461	5085
1485	5087
1534	5090
1572	5092
1564	5094
1531	5097
1536	5099
1525	5102
1485	5104
1462	5106
1460	5109
1484	5111
1519	5114
1547	5116
1544	5118
1518	5122
1506	5124
1492	5127
1508	5129
1566	5131
1627	5134
1635	5136
1582	5139
1510	5141
1486	5143
1486	5146
1494	5148
1484	5150
1469	5153
1480	5155
1510	5158
1531	5160
1523	5163
1510	5166
1500	5168
1487	5171
1474	5173
1467	5175
1447	5178
1433	5180
1424	5183
1431	5185
1439	5187
1448	5190
1443	5192
1428	5195
1431	5197
1466	5199
1529	5202
1593	5204
1613	5208
1591	5210
1564	5212
1541	5215
1536	5217
1512	5220
1489	5222
1498	5224
1510	5227
1490	5229
1463	5231
1479	5234
1529	5236
1582	5239
1590	5241
1554	5243
1471	5246
1430	5249
1416	5252
1413	5254
1421	5256
1422	5259
1427	5261
1468	5264
1544	5266
1597	5268
1608	5271
1557	5273
1482	5276
1448	5278
1430	5280
1428	5283
1435	5285
1462	5288
1493	5291
1517	5293
1503	5296
1492	5298
1526	5301
1561	5303
1575	5305
1554	5308
1506	5310
1449	5312
1425	5315
1412	5317
1409	5320
1415	5322
1442	5324
1498	5327
1543	5329
1535	5332
1499	5335
1444	5337
1457	5340
1496	5342
1514	5345
1484	5347
1452	5349
1449	5352
1465	5354
1479	5357
1502	5359
1506	5361
1469	5364
1430	5366
1419	5369
1425	5371
1465	5373
1530	5377
1573	5379
1589	5382
1583	5384
1563	5386
1510	5389
1479	5391
1466	5393
1474	5396
1489	5398
1471	5401
1427	5403
1417	5405
1427	5408
1450	5410
1468	5413
1459	5415
1454	5417
1458	5421
1492	5423
1525	5426
1538	5428
1507	5430
1444	5433
1424	5435
1427	5438
1443	5440
1470	5442
1490	5445
1501	5447
1525	5450
1543	5452
1539	5454
1504	5457
1497	5459
1530	5463
1602	5465
1628	5467
1615	5470
1562	5472
1515	5474
1485	5477
1435	5479
1415	5482
1415	5484
1466	5486
1529	5489
1569	5491
1555	5494
1491	5496
1467	5498
1447	5501
1427	5504
1419	5507
1426	5509
1434	5511
1441	5514
1444	5516
1446	5519
1455	5521
1459	5523
1466	5526
1476	5528
1501	5531
1537	5533
1569	5535
1589	5538
1593	5540
1595	5543
1598	5545
1594	5548
1570	5551
1503	5553
1467	5556
1472	5558
1507	5560
1543	5563
1566	5565
1543	5567
1524	5570
1509	5572
1509	5575
1481	5577
1448	5579
1442	5582
1456	5584
1475	5587
1480	5590
1469	5592
1452	5595
1446	5597
1446	5600
1458	5602
1476	5604
1506	5607
1554	5609
1611	5612
1654	5614
1624	5616
1570	5619
1521	5621
1517	5624
1539	5626
1558	5628
1571	5632
1534	5634
1526	5637
1532	5639
1545	5641
1558	5644
1557	5646
1554	5649
1561	5651
1572	5653
1568	5656
1542	5658
1513	5660
1476	5663
1441	5665
1424	5668
1431	5670
1453	5672
1475	5676
1500	5678
1492	5681
1491	5683
1477	5685
1473	5688
1473	5690
1476	5693
1475	5695
1494	5697
1521	5700
1527	5702
1518	5705
1515	5707
1551	5709
1591	5712
1614	5714
1596	5718
1558	5720
1520	5722
1499	5725
1485	5727
1472	5730
1460	5732
1461	5734
1485	5737
1524	5739
1554	5741
1551	5744
1513	5746
1500	5749
1522	5751
1559	5753
1561	5756
1512	5758
1484	5762
1473	5764
1464	5766
1454	5769
1448	5771
1467	5774
1502	5776
1538	5778
1560	5781
1559	5783
1537	5786
1533	5788
1534	5790
1552	5793
1559	5795
1541	5798
1531	5800
1543	5803
1568	5806
1548	5808
1511	5811
1490	5813
1465	5815
1457	5818
1451	5820
1460	5822
1486	5825
1509	5827
1514	5830
1487	5832
1464	5834
1457	5837
1479	5839
1522	5842
1549	5844
1530	5847
1487	5850
1459	5852
1449	5855
1461	5857
1475	5859
1495	5862
1520	5864
1542	5867
1538	5869
1529	5871
1530	5874
1541	5876
1528	5879
1502	5881
1501	5883
1484	5886
1478	5889
1486	5892
1502	5894
1512	5896
1509	5899
1509	5901
1514	5903
1513	5906
1504	5908
1502	5911
1497	5913
1503	5915
1534	5918
1580	5920
1605	5923
1590	5925
1550	5927
1521	5931
1499	5933
1502	5936
1521	5938
1525	5940
1517	5943
1495	5945
1488	5948
1501	5950
1516	5952
1504	5955
1492	5957
1493	5960
1502	5962
1511	5964
1497	5967
1469	5969
1453	5972
1464	5975
1507	5977
1561	5980
1596	5982
1598	5984
1565	5987
1542	5989
1513	5992
1488	5994
1526	5996
1588	5999
1618	6001
1581	6004
1514	6006
1506	6008
1502	6011
1493	6013
1495	6017
1525	6019
1559	6021
1571	6024
1557	6026
1533	6029
1530	6031
1537	6033
1534	6036
1499	6038
1470	6041
1457	6043
1458	6045
1458	6048
1458	6050
1446	6053
1436	6055
1452	6057
1470	6061
1487	6063
1512	6065
1557	6068
1603	6070
1609	6073
1573	6075
1539	6077
1524	6080
1529	6082
1529	6085
1523	6087
1509	6089
1485	6092
1475	6094
1474	6097
1476	6099
1479	6102
1488	6105
1503	6107
1529	6110
1550	6112
1557	6114
1537	6117
1502	6119
1492	6122
1493	6124
1484	6126
1473	6129
1456	6131
1449	6134
1452	6136
1465	6138
1501	6141
1530	6144
1537	6146
1522	6149
1522	6151
1537	6154
1554	6156
1600	6158
1609	6161
1568	6163
1533	6166
1552	6168
1601	6170
1612	6173
1551	6175
1499	6178
1490	6180
1482	6182
1473	6185
1471	6188
1497	6191
1528	6193
1542	6195
1492	6198
1444	6200
1433	6203
1461	6205
1497	6207
1523	6210
1506	6212
1456	6215
1435	6217
1437	6219
1438	6222
1436	6224
1455	6226
1494	6230
1531	6232
1531	6235
1502	6237
1510	6239
1515	6242
1514	6244
1508	6247
1494	6249
1493	6251
1518	6254
1543	6256
1547	6259
1524	6261
1513	6263
1489	6266
1471	6268
1466	6272
1454	6274
1445	6276
1460	6279
1483	6281
1512	6284
1543	6286
1545	6288
1535	6291
1504	6293
1482	6296
1491	6298
1523	6300
1558	6303
1550	6305
1495	6307
1477	6310
1502	6312
1543	6316
1564	6318
1551	6320
1521	6323
1500	6325
1506	6328
1551	6330
1598	6332
1598	6335
1557	6337
1502	6340
1484	6342
1463	6344
1434	6347
1420	6349
1426	6352
1439	6354
1441	6356
1432	6360
1446	6362
1452	6365
1453	6367
1449	6369
1458	6372
1474	6374
1502	6377
1553	6379
1604	6381
1612	6384
1580	6386
1537	6389
1509	6391
1468	6393
1454	6396
1477	6398
1540	6401
1568	6404
1548	6406
1493	6409
1455	6411
1452	6413
1465	6416
1479	6418
1457	6421
1438	6423
1444	6425
1474	6428
1510	6430
1535	6433
1545	6435
1544	6437
1525	6440
1495	6443
1485	6446
1478	6448
1466	6450
1452	6453
1428	6455
1420	6458
1436	6460
1462	6462
1490	6465
1508	6467
1526	6470
1550	6472
1539	6474
1523	6477
1490	6479
1493	6481
1491	6484
1472	6487
1444	6490
1436	6492
1434	6494
1447	6497
1461	6499
1481	6502
1508	6504
1526	6506
1520	6509
1479	6511
1437	6514
1426	6516
1429	6518
1437	6521
1438	6523
1437	6526
1450	6529
1483	6531
1528	6534
1546	6536
1553	6539
1572	6541
1590	6543
1615	6546
1623	6548
1586	6550
1536	6553
1473	6555
1470	6558
1493	6560
1500	6562
1474	6565
1443	6567
1446	6571
1477	6573
1516	6575
1538	6578
1508	6580
1471	6583
1434	6585
1426	6587
1432	6590
1437	6592
1431	6595
1427	6597
1435	6599
1461	6602
1488	6604
1495	6607
1496	6609
1505	6611
1521	6615
1540	6617
1572	6620
1599	6622
1599	6624
1570	6627
1537	6629
1526	6631
1537	6634
1534	6636
1518	6639
1519	6641
1516	6643
1502	6646
1483	6648
1466	6651
1464	6653
1491	6656
1542	6659
1568	6661
1563	6664
1565	6666
1526	6668
1480	6671
1447	6673
1434	6676
1434	6678
1465	6680
1517	6683
1549	6685
1548	6688
1497	6690
1455	6692
1434	6695
1442	6697
1476	6701
1510	6703
1540	6705
1552	6708
1531	6710
1523	6712
1526	6715
1558	6717
1572	6720
1545	6722
1488	6724
1455	6727
1445	6729
1453	6732
1480	6734
1491	6736
1471	6739
1456	6742
1450	6745
1453	6747
1463	6749
1471	6752
1493	6754
1528	6757
1571	6759
1614	6761
1615	6764
1578	6766
1550	6769
1540	6771
1550	6773
1555	6776
1555	6778
1544	6781
1502	6784
1464	6786
1445	6789
1437	6791
1428	6793
1427	6796
1424	6798
1433	6801
1448	6803
1458	6805
1459	6808
1448	6810
1440	6813
1452	6815
1487	6817
1535	6820
1571	6822
1565	6825
1515	6828
1496	6830
1506	6833
1526	6835
1548	6838
1559	6840
1561	6842
1537	6845
1500	6847
1477	6850
1491	6852
1508	6854
1527	6857
1537	6859
1546	6862
1564	6864
1577	6866
1566	6870
1526	6872
1477	6874
1461	6877
1474	6879
1499	6882
1524	6884
1534	6886
1517	6889
1491	6891
1465	6894
1462	6896
1475	6898
1507	6901
1555	6903
1572	6906
1553	6908
1525	6910
1507	6914
1504	6916
1502	6919
1520	6921
1558	6923
1602	6926
1628	6928
1594	6931
1575	6933
1581	6935
1578	6938
1563	6940
1525	6943
1500	6945
1493	6947
1484	6950
1486	6952
1516	6955
1572	6958
1616	6960
1616	6963
1549	6965
1492	6967
1471	6970
1461	6972
1460	6975
1461	6977
1475	6979
1492	6982
1503	6984
1522	6987
1523	6989
1501	6991
1486	6994
1489	6996
1489	7000
1498	7002
1543	7004
1618	7007
1658	7009
1636	7012
1574	7014
1519	7016
1476	7019
1466	7021
1478	7024
1500	7026
1512	7028
1518	7031
1545	7033
1576	7035
1579	7038
1569	7041
1531	7044
1546	7046
1562	7048
1546	7051
1514	7053
1493	7056
1485	7058
1483	7060
1491	7063
1528	7065
1593	7068
1618	7070
1575	7072
1534	7075
1493	7077
1471	7080
1465	7083
1478	7085
1505	7088
1553	7090
1618	7093
1662	7095
1657	7097
1581	7100
1505	7102
1456	7105
1440	7107
1437	7109
1447	7112
1460	7114
1467	7117
1472	7119
1484	7121
1496	7124
1517	7127
1536	7129
1542	7132
1516	7134
1482	7137
1475	7139
1508	7141
1556	7144
1574	7146
1576	7149
1583	7151
1591	7153
1579	7156
1525	7158
1474	7161
1457	7163
1462	7165
1487	7169
1538	7171
1558	7174
1535	7176
1482	7178
1442	7181
1425	7183
1431	7186
1444	7188
1461	7190
1467	7193
1469	7195
1465	7198
1450	7200
1439	7202
1436	7205
1438	7207
1437	7209
1445	7213
1474	7215
1515	7218
1560	7220
1598	7222
1610	7225
1559	7227
1525	7230
1537	7232
1590	7234
1624	7237
1607	7239
1533	7242
1480	7244
1473	7246
1474	7249
1490	7251
1527	7255
1557	7257
1561	7259
1553	7262
1544	7264
1554	7267
1535	7269
1489	7271
1443	7274
1427	7276
1429	7279
1437	7281
1440	7283
1431	7286
1425	7288
1429	7290
1430	7293
1429	7296
1430	7299
1435	7301
1455	7303
1477	7306
1503	7308
1539	7311
1569	7313
1585	7315
1575	7318
1522	7320
1484	7323
1487	7325
1512	7327
1525	7330
1508	7332
1474	7335
1480	7337
1525	7340
1587	7343
1601	7345
1564	7348
1508	7350
1466	7352
1442	7355
1438	7357
1443	7360
1452	7362
1474	7364
1491	7367
1499	7369
1506	7372
1505	7374
1512	7376
1503	7379
1490	7382
1479	7384
1480	7387
1515	7389
1550	7392
1559	7394
1555	7396
1534	7399
1521	7401
1511	7404
1487	7406
1462	7408
1456	7411
1464	7413
1480	7416
1491	7418
1498	7420
1498	7424
1497	7426
1487	7429
1501	7431
1525	7433
1569	7436
1587	7438
1555	7441
1502	7443
1469	7445
1479	7448
1518	7450
1560	7453
1563	7455
1520	7457
1492	7460
1481	7462
1459	7464
1451	7468
1460	7470
1466	7473
1458	7475
1445	7477
1461	7480
1511	7482
1568	7485
1595	7487
1591	7489
1568	7492
1560	7494
1549	7497
1520	7499
1487	7501
1485	7504
1494	7506
1504	7510
1503	7512
1500	7514
1495	7517
1479	7519
1470	7522
1490	7524
1530	7526
1554	7529
1527	7531
1481	7534
1484	7536
1515	7538
1558	7541
1574	7543
1550	7545
1525	7548
1539	7550
1571	7554
1581	7556
1532	7558
1470	7561
1444	7563
1435	7566
1443	7568
1463	7570
1476	7573
1481	7575
1469	7578
1452	7580
1464	7582
1503	7585
1554	7587
1589	7590
1565	7592
1502	7595
1463	7598
1442	7600
1431	7603
1458	7605
1514	7607
1582	7610
1622	7612
1626	7615
1630	7617
1602	7619
1533	7622
1485	7624
1490	7626
1506	7629
1526	7631
1529	7634
1522	7636
1525	7639
1515	7642
1504	7644
1490	7647
1479	7649
1458	7651
1436	7654
1429	7656
1431	7659
1440	7661
1448	7663
1447	7666
1444	7668
1452	7671
1452	7673
1469	7675
1497	7678
1534	7681
1575	7684
1582	7686
1605	7688
1608	7691
1560	7693
1513	7696
1472	7698
1462	7700
1481	7703
1511	7705
1537	7707
1543	7710
1546	7712
1550	7715
1543	7717
1495	7719
1463	7723
1439	7725
1432	7728
1433	7730
1439	7732
1445	7735
1454	7737
1465	7740
1485	7742
1504	7744
1512	7747
1503	7749
1475	7752
1453	7754
1448	7756
1451	7759
1499	7761
1561	7764
1599	7767
1573	7769
1518	7772
1478	7774
1472	7777
1484	7779
1503	7781
1538	7784
1579	7786
1608	7788
1599	7791
1536	7793
1504	7796
1499	7798
1490	7800
1491	7803
1502	7805
1508	7809
1520	7811
1522	7813
1515	7816
1503	7818
1515	7821
1539	7823
1548	7825
1532	7828
1504	7830
1487	7833
1494	7835
1499	7837
1521	7840
1548	7842
1567	7845
1552	7847
1522	7849
1525	7853
1544	7855
1555	7858
1546	7860
1511	7862
1501	7865
1492	7867
1477	7869
1471	7872
1483	7874
1484	7877
1470	7879
1467	7881
1486	7884
1536	7886
1581	7889
1591	7891
1571	7894
1537	7897
1490	7899
1475	7902
1484	7904
1518	7906
1552	7909
1591	7911
1599	7914
1587	7916
1564	7918
1541	7921
1545	7923
1557	7926
1554	7928
1541	7930
1545	7933
1558	7936
1560	7939
1535	7941
1485	7943
1453	7946
1452	7948
1476	7950
1538	7953
1580	7955
1568	7958
1507	7960
1445	7962
1426	7965
1431	7967
1443	7970
1458	7972
1458	7974
1451	7977
1435	7980
1427	7983
1427	7985
1437	7987
1461	7990
1507	7992
1565	7995
1597	7997
1617	7999
1589	8002
1553	8004
1538	8007
1520	8009
1487	8011
1461	8014
1447	8016
1444	8019
1452	8022
1462	8024
1477	8027
1534	8029
1596	8031
1625	8034
1569	8036
1495	8039
1484	8041
1508	8043
1544	8046
1542	8048
1509	8051
1483	8053
1457	8055
1452	8058
1451	8060
1454	8064
1467	8066
1498	8068
1544	8071
1576	8073
1570	8076
1540	8078
1507	8080
1503	8083
1518	8085
1560	8088
1571	8090
1555	8092
1527	8095
1492	8097
1485	8100
1497	8102
1522	8104
1571	8108
1603	8110
1617	8112
1566	8115
1497	8117
1469	8120
1484	8122
1520	8124
1546	8127
1524	8129
1481	8132
1465	8134
1461	8136
1465	8139
1477	8141
1496	8144
1508	8146
1530	8148
1540	8152
1520	8154
1498	8157
1466	8159
1445	8161
1440	8164
1451	8166
1487	8169
1526	8171
1539	8173
1514	8176
1512	8178
1538	8181
1545	8183
1536	8185
1511	8188
1495	8190
1479	8193
1462	8196
1432	8198
1419	8201
1416	8203
1439	8205
1485	8208
1532	8210
1551	8213
1529	8215
1502	8217
1483	8220
1468	8222
1461	8225
1470	8227
1505	8229
1570	8232
1633	8235
1657	8238
1647	8240
1614	8242
1548	8245
1505	8247
1511	8250
1530	8252
1557	8254
1576	8257
1582	8259
1579	8262
1541	8264
1517	8266
1520	8269
1512	8271
1497	8273
1490	8276
1494	8279
1503	8282
1518	8284
1539	8286
1555	8289
1548	8291
1520	8294
1512	8296
1521	8298
1543	8301
1566	8303
1556	8306
1530	8308
1529	8310
1548	8313
1573	8315
1587	8318
1568	8321
1543	8323
1496	8326
1448	8328
1457	8331
1524	8333
1582	8335
1605	8338
1551	8340
1497	8343
1450	8345
1425	8347
1415	8350
1416	8352
1423	8354
1444	8357
1465	8359
1470	8363
1470	8365
1479	8367
1511	8370
1538	8372
1522	8375
1493	8377
1489	8379
1486	8382
1478	8384
1462	8387
1444	8389
1438	8391
1455	8394
1505	8396
1566	8399
1567	8401
1519	8403
1481	8407
1460	8409
1469	8412
1487	8414
1495	8416
1477	8419
1441	8421
1428	8424
1458	8426
1506	8428
1558	8431
1574	8433
1534	8435
1476	8438
1451	8440
1443	8443
1467	8445
1506	8448
1526	8451
1524	8453
1476	8456
1434	8458
1431	8460
1456	8463
1475	8465
1469	8468
1433	8470
1414	8472
1446	8475
1502	8477
1582	8480
1609	8482
1561	8484
1495	8487
1452	8489
1442	8493
1449	8495
1442	8497
1425	8500
1439	8502
1468	8505
1486	8507
1493	8509
1494	8512
1535	8514
1570	8516
1576	8519
1556	8521
1530	8524
1523	8526
1532	8528
1543	8531
1542	8534
1538	8537
1542	8539
1543	8541
1549	8544
1580	8546
1603	8549
1620	8551
1602	8553
1586	8556
1586	8558
1574	8561
1585	8563
1614	8565
1620	8568
1613	8570
1585	8573
1545	8576
1522	8578
1516	8581
1517	8583
1494	8586
1461	8588
1442	8590
1429	8593
1432	8595
1441	8597
1453	8600
1461	8602
1451	8605
1459	8607
1483	8609
1534	8612
1578	8614
1582	8617
1574	8620
1550	8622
1548	8625
1552	8627
1532	8630
1493	8632
1470	8634
1468	8637
1471	8639
1468	8642
1502	8644
1538	8646
1572	8649
1572	8651
1518	8654
1464	8656
1422	8658
1407	8662
1425	8664
1478	8667
1537	8669
1561	8671
1504	8674
1446	8676
1422	8678
1410	8681
1404	8683
1408	8686
1419	8688
1430	8690
1444	8693
1455	8695
1465	8698
1471	8700
1460	8702
1456	8706
1472	8708
1541	8711
1621	8713
1660	8715
1637	8718
1583	8720
1554	8723
1513	8725
1456	8727
1434	8730
1428	8732
1427	8735
1426	8737
1431	8739
1449	8742
1468	8744
1485	8748
1495	8750
1511	8752
1502	8755
1476	8757
1451	8760
1422	8762
1409	8764
1427	8767
1467	8769
1524	8771
1564	8774
1566	8776
1534	8779
1512	8781
1501	8783
1505	8786
1533	8788
1543	8792
1540	8794
1509	8796
1464	8799
1472	8801
1520	8804
1553	8806
1545	8808
1488	8811
1477	8813
1477	8816
1484	8818
1502	8820
1492	8823
1468	8825
1450	8828
1451	8830
1435	8833
1411	8836
1402	8838
1405	8840
1426	8843
1452	8845
1489	8848
1504	8850
1496	8852
1479	8855
1465	8857
1448	8860
1445	8862
1464	8864
1485	8867
1489	8869
1461	8872
1442	8875
1439	8877
1499	8880
1587	8882
1652	8885
1627	8887
1554	8889
1511	8892
1484	8894
1469	8897
1453	8899
1442	8901
1441	8904
1453	8906
1483	8909
1521	8911
1528	8913
1495	8916
1456	8919
1450	8922
1458	8924
1466	8926
1487	8929
1528	8931
1582	8933
1613	8936
1585	8938
1534	8941
1556	8943
1599	8945
1620	8948
1574	8950
1503	8953
1474	8955
1460	8957
1468	8961
1502	8963
1558	8966
1588	8968
1582	8970
1571	8973
1576	8975
1576	8978
1560	8980
1498	8982
1437	8985
1418	8987
1411	8990
1415	8992
1424	8994
1434	8997
1438	8999
1446	9003
1461	9005
1482	9007
1506	9010
1536	9012
1564	9015
1576	9017
1591	9019
1605	9022
1617	9024
1620	9026
1617	9029
1609	9031
1605	9034
1598	9036
1588	9038
1627	9041
1688	9043
1714	9047
1699	9049
1614	9051
1544	9054
1500	9056
1482	9059
1474	9061
1478	9063
1485	9066
1505	9068
1521	9071
1525	9073
1514	9075
1488	9078
1472	9080
1468	9083
1478	9085
1492	9088
1489	9091
1481	9093
1496	9096
1537	9098
1566	9100
1566	9103
1542	9105
1499	9107
1474	9110
1458	9112
1486	9115
1538	9117
1572	9119
1554	9122
1514	9124
1489	9127
1461	9129
1444	9132
1420	9135
1401	9137
1397	9140
1397	9142
1407	9144
1446	9147
1494	9149
1521	9152
1506	9154
1486	9156
1476	9159
1474	9161
1483	9164
1490	9166
1499	9168
1510	9171
1516	9174
1513	9177
1506	9179
1504	9181
1506	9184
1509	9186
1504	9188
1507	9191
1535	9193
1597	9196
1673	9198
1693	9200
1633	9203
1526	9205
1455	9208
1428	9210
1424	9212
1426	9216
1430	9218
1426	9221
1415	9223
1415	9225
1418	9228
1419	9230
1416	9233
1415	9235
1431	9237
1449	9240
1458	9242
1458	9245
1461	9247
1468	9249
1471	9252
1497	9254
1537	9257
1575	9260
1607	9262
1612	9265
1595	9267
1562	9269
1551	9272
1550	9274
1556	9277
1554	9279
1538	9281
1530	9284
1529	9286
1507	9289
1487	9291
1502	9293
1530	9296
1558	9298
1554	9302
1521	9304
1507	9306
1511	9309
1517	9311
1513	9314
1510	9316
1504	9318
1514	9321
1529	9323
1553	9326
1565	9328
1571	9330
1568	9333
1545	9335
1537	9338
1534	9340
1549	9342
1569	9346
1572	9348
1550	9350
1530	9353
1527	9355
1531	9358
1541	9360
1549	9362
1555	9365
1543	9367
1545	9370
1543	9372
1532	9374
1518	9377
1514	9379
1513	9382
1511	9384
1493	9387
1477	9390
1470	9392
1472	9395
1473	9397
1480	9399
1520	9402
1563	9404
1585	9407
1555	9409
1501	9411
1476	9414
1456	9416
1441	9419
1439	9421
1453	9423
1476	9426
1484	9428
1460	9432
1431	9434
1432	9436
1454	9439
1482	9441
1496	9443
1504	9446
1518	9448
1529	9451
1527	9453
1525	9455
1499	9458
1466	9460
1454	9463
1459	9465
1465	9467
1464	9470
1457	9473
1447	9476
1445	9478
1467	9480
1525	9483
1585	9485
1609	9488
1569	9490
1514	9492
1473	9495
1460	9497
1464	9500
1472	9502
1488	9504
1515	9507
1552	9509
1590	9512
1587	9515
1569	9517
1562	9520
1563	9522
1547	9524
1514	9527
1496	9529
1480	9532
1481	9534
1494	9536
1526	9539
1545	9541
1538	9544
1518	9546
1500	9548
1489	9551
1477	9553
1467	9556
1462	9559
1461	9561
1474	9564
1499	9566
1514	9569
1508	9571
1489	9573
1490	9576
1493	9578
1482	9581
1457	9583
1439	9585
1439	9588
1458	9590
1481	9593
1511	9595
1546	9597
1581	9601
1577	9603
1541	9605
1499	9608
1463	9610
1443	9613
1431	9615
1441	9617
1457	9620
1467	9622
1471	9625
1455	9627
1462	9629
1498	9632
1555	9634
1616	9637
1652	9639
1656	9641
1589	9645
1503	9647
1490	9650
1513	9652
1536	9654
1527	9657
1511	9659
1522	9662
1559	9664
1596	9666
1591	9669
1554	9671
1523	9674
1486	9676
1496	9678
1541	9681
1592	9683
1628	9686
1625	9689
1601	9691
1549	9694
1486	9696
1459	9698
1454	9701
1459	9703
1463	9706
1464	9708
1468	9710
1465	9713
1484	9715
1496	9718
1487	9720
1473	9722
1471	9725
1497	9728
1553	9731
1604	9733
1624	9735
1592	9738
1521	9740
1470	9743
1459	9745
1476	9747
1521	9750
1569	9752
1585	9755
1586	9757
1573	9759
1566	9762
1546	9764
1531	9767
1507	9769
1467	9772
1452	9775
1452	9777
1444	9779
1427	9782
1419	9784
1415	9787
1425	9789
1441	9791
1457	9794
1466	9796
1478	9799
1493	9801
1501	9803
1519	9806
1532	9808
1522	9811
1488	9814
1484	9816
1477	9819
1463	9821
1481	9824
1504	9826
1547	9828
1589	9831
1591	9833
1575	9836
1509	9838
1460	9840
1429	9843
1432	9845
1451	9848
1464	9850
1464	9852
1446	9856
1444	9858
1465	9860
1509	9863
1558	9865
1579	9868
1578	9870
1555	9872
1500	9875
1460	9877
1447	9880
1441	9882
1439	9884
1436	9887
1431	9889
1435	9892
1466	9894
1507	9896
1563	9900
1590	9902
1566	9905
1541	9907
1558	9909
1578	9912
1572	9914
1510	9917
1454	9919
1423	9921
1412	9924
1419	9926
1439	9929
1475	9931
1510	9933
1522	9936
1502	9938
1485	9940
1475	9944
1452	9946
1435	9949
1433	9951
1443	9953
1459	9956
1489	9958
1514	9961
1522	9963
1523	9965
1496	9968
1493	9970
1510	9973
1501	9975
1494	9977
1467	9980
1429	9982
1403	9986
1441	9988
1513	9990
1557	9993
1529	9995
1435	9998
1380	10000
1359	10002
1366	10005
1381	10007
1399	10010
1409	10012
1403	10015
1400	10017
1408	10019
1435	10022
1454	10024
1457	10028
1451	10030
1447	10033
1473	10035
1507	10038
1511	10040
1468	10042
1448	10045
1466	10047
1479	10050
1493	10052
1507	10055
1519	10057
1512	10060
1498	10062
1498	10064
1528	10067
1532	10070
1494	10073
1453	10075
1453	10078
1504	10080
1546	10083
1558	10085
1527	10087
1468	10090
1434	10092
1406	10095
1392	10097
1395	10100
1412	10102
1424	10105
1418	10107
1405	10110
1421	10113
1452	10115
1474	10118
1474	10120
1454	10123
1445	10125
1435	10128
1411	10130
1396	10132
1405	10135
1430	10137
1449	10140
1443	10142
1443	10145
1463	10147
1478	10150
1477	10152
1459	10156
1453	10158
1467	10160
1496	10163
1515	10165
1528	10168
1532	10170
1506	10173
1476	10175
1460	10178
1450	10180
1453	10182
1475	10185
1498	10187
1512	10190
1516	10192
1518	10195
1534	10198
1546	10201
1545	10203
1540	10205
1524	10208
1523	10210
1527	10213
1533	10215
1551	10218
1556	10220
1559	10223
1563	10225
1574	10227
1591	10230
1598	10232
1565	10235
1524	10237
1500	10241
1497	10243
1495	10246
1481	10248
1468	10250
1474	10253
1483	10255
1498	10258
1510	10260
1515	10263
1517	10265
1508	10268
1509	10270
1523	10272
1563	10275
1590	10277
1607	10280
1578	10283
1524	10286
1479	10288
1480	10291
1536	10293
1610	10295
1636	10298
1575	10300
1523	10303
1498	10305
1518	10308
1552	10310
1558	10313
1522	10315
1486	10317
1474	10320
1468	10322
1482	10326
1495	10328
1501	10331
1487	10333
1465	10336
1471	10338
1479	10340
1483	10343
1484	10345
1477	10348
1475	10350
1494	10353
1523	10355
1577	10358
1623	10360
1628	10362
1603	10365
1560	10368
1567	10371
1618	10373
1641	10376
1623	10378
1573	10381
1550	10383
1561	10385
1576	10388
1561	10390
1521	10393
1509	10395
1528	10398
1582	10400
1633	10403
1633	10405
1570	10407
1519	10411
1485	10413
1459	10416
1446	10418
1471	10421
1516	10423
1562	10426
1580	10428
1559	10430
1538	10433
1512	10435
1471	10438
1441	10440
1431	10443
1433	10445
1443	10448
1453	10450
1463	10452
1484	10456
1502	10458
1522	10461
1522	10463
1518	10466
1543	10468
1569	10471
1575	10473
1561	10475
1542	10478
1518	10480
1514	10483
1536	10485
1554	10488
1534	10490
1476	10493
1431	10496
1422	10498
1441	10501
1476	10503
1512	10506
1499	10508
1440	10511
1428	10513
1433	10516
1444	10518
1450	10520
1449	10523
1446	10525
1452	10528
1478	10530
1502	10533
1519	10535
1517	10539
1505	10541
1504	10543
1516	10546
1538	10548
1567	10551
1617	10553
1659	10556
1656	10558
1611	10561
1586	10563
1569	10565
1535	10568
1508	10570
1504	10573
1503	10575
1504	10578
1507	10580
1508	10584
1514	10586
1519	10588
1518	10591
1527	10593
1532	10596
1554	10598
1577	10601
1583	10603
1550	10606
1504	10608
1477	10610
1470	10613
1486	10615
1519	10618
1556	10620
1575	10624
1570	10626
1605	10629
1640	10631
1638	10633
1571	10636
1485	10638
1448	10641
1431	10643
1424	10646
1427	10648
1428	10651
1428	10653
1426	10655
1426	10658
1430	10660
1422	10663
1414	10665
1418	10669
1467	10671
1558	10674
1609	10676
1576	10678
1500	10681
1447	10683
1434	10686
1461	10688
1495	10691
1503	10693
1471	10696
1444	10698
1443	10700
1465	10703
1481	10705
1484	10708
1462	10711
1442	10714
1467	10716
1516	10719
1554	10721
1570	10723
1556	10726
1562	10728
1552	10731
1496	10733
1454	10736
1456	10738
1483	10741
1514	10743
1522	10745
1494	10748
1479	10750
1532	10754
1611	10756
1653	10759
1613	10761
1544	10764
1499	10766
1483	10768
1509	10771
1555	10773
1591	10776
1588	10778
1556	10781
1524	10783
1497	10786
1483	10788
1493	10790
1503	10793
1515	10796
1513	10799
1516	10801
1514	10804
1513	10806
1503	10809
1477	10811
1470	10814
1482	10816
1498	10818
1501	10821
1488	10823
1496	10826
1537	10828
1573	10831
1586	10833
1561	10835
1530	10839
1490	10841
1469	10844
1480	10846
1495	10849
1507	10851
1505	10854
1493	10856
1478	10858
1460	10861
1451	10863
1459	10866
1476	10868
1519	10871
1550	10873
1565	10876
1571	10878
1570	10881
1585	10884
1556	10886
1511	10889
1492	10891
1470	10894
1450	10896
1448	10899
1494	10901
1529	10903
1560	10906
1584	10908
1598	10911
1606	10913
1586	10916
1520	10918
1469	10921
1450	10924
1460	10926
1475	10929
1502	10931
1534	10934
1557	10936
1562	10939
1534	10941
1504	10944
1481	10946
1451	10949
1448	10951
1504	10953
1578	10956
1618	10958
1580	10961
1529	10963
1508	10967
1479	10969
1426	10972
1401	10974
1394	10976
1391	10979
1391	10981
1393	10984
1402	10986
1410	10989
1415	10991
1414	10994
1415	10996
1422	10998
1432	11001
1434	11003
1428	11006
1428	11009
1470	11012
1536	11014
1595	11016
1629	11019
1635	11021
1635	11024
1569	11026
1514	11029
1510	11031
1507	11034
1491	11036
1474	11039
1463	11041
1468	11043
1484	11046
1475	11048
1450	11052
1427	11054
1407	11057
1404	11059
1410	11061
1416	11064
1440	11066
1469	11069
1485	11071
1485	11074
1474	11076
1481	11079
1488	11081
1497	11084
1545	11086
1594	11088
1622	11091
1587	11094
1519	11097
1526	11099
1569	11102
1614	11104
1611	11107
1564	11109
1521	11111
1487	11114
1481	11116
1506	11119
1550	11121
1585	11124
1578	11126
1529	11129
1490	11131
1477	11133
1482	11137
1493	11139
1496	11142
1488	11144
1491	11147
1490	11149
1492	11152
1490	11154
1498	11156
1529	11159
1592	11161
1660	11164
1697	11166
1682	11169
1619	11171
1563	11174
1534	11176
1533	11179
1540	11182
1539	11184
1527	11187
1515	11189
1509	11192
1514	11194
1525	11197
1528	11199
1530	11201
1551	11204
1574	11206
1588	11209
1563	11211
1536	11214
1551	11216
1604	11219
1662	11222
1685	11224
1637	11227
1560	11229
1494	11232
1464	11234
1456	11237
1483	11239
1535	11242
1583	11244
1584	11246
1544	11249
1506	11251
1513	11254
1548	11256
1572	11259
1542	11261
1478	11265
1444	11267
1431	11269
1427	11272
1427	11274
1431	11277
1437	11279
1445	11282
1469	11284
1510	11287
1544	11289
1547	11291
1509	11294
1474	11296
1458	11299
1454	11301
1452	11304
1448	11307
1454	11310
1473	11312
1537	11314
1595	11317
1624	11319
1609	11322
1546	11324
1494	11327
1455	11329
1439	11332
1442	11334
1450	11337
1451	11339
1444	11341
1423	11344
1421	11346
1451	11350
1493	11352
1516	11355
1511	11357
1497	11359
1479	11362
1459	11364
1448	11367
1456	11369
1483	11372
1508	11374
1516	11377
1497	11379
1486	11381
1491	11384
1503	11386
1512	11389
1510	11392
1524	11395
1580	11397
1649	11400
1678	11402
1629	11404
1561	11407
1505	11409
1491	11412
1507	11414
1528	11417
1534	11419
1515	11422
1487	11424
1474	11427
1473	11429
1476	11431
1490	11435
1506	11437
1513	11440
1506	11442
1488	11445
1489	11447
1487	11450
1478	11452
1468	11454
1463	11457
1508	11459
1578	11462
1626	11464
1613	11467
1546	11469
1508	11471
1485	11474
1474	11476
1469	11480
1470	11482
1474	11485
1479	11487
1481	11490
1480	11492
1492	11495
1526	11497
1564	11499
1586	11502
1563	11504
1527	11507
1498	11509
1483	11512
1476	11514
1465	11517
1463	11520
1489	11522
1529	11525
1550	11527
1533	11530
1483	11532
1454	11535
1441	11537
1433	11540
1427	11542
1425	11544
1425	11547
1426	11549
1438	11552
1462	11554
1483	11557
1486	11559
1469	11563
1451	11565
1440	11567
1438	11570
1441	11572
1451	11575
1468	11577
1484	11580
1490	11582
1481	11585
1474	11587
1474	11589
1478	11592
1485	11594
1484	11597
1483	11599
1489	11602
1509	11604
1528	11608
1529	11610
1508	11612
1478	11615
1465	11617
1462	11620
1460	11622
1460	11625
1461	11627
1462	11630
1464	11632
1467	11634
1470	11637
1474	11639
1478	11642
1480	11644
1482	11648
1483	11650
1485	11653
1488	11655
1492	11657
1497	11660
1502	11662
1505	11665
1508	11667
1510	11670
1510	11672
1508	11675
1508	11677
1512	11679
1519	11682
1542	11684
1583	11687
1624	11689
1638	11693
1615	11695
1588	11698
1572	11700
1561	11702
1550	11705
1532	11707
1520	11710
1514	11712
1512	11715
1512	11717
1513	11720
1514	11722
1515	11724
1516	11727
1516	11729
1518	11732
1520	11735
1522	11738
1524	11740
1527	11743
1529	11745
1531	11747
1532	11750
1535	11752
1538	11755
1539	11757
1540	11760
1541	11762
1542	11765
1543	11767
1545	11769
1554	11772
1577	11774
1600	11778
1609	11780
1592	11783
1566	11785
1551	11788
1548	11790
1554	11792
1569	11795
1583	11797
1586	11800
1575	11802
1558	11805
1548	11807
1539	11810
1533	11812
1531	11814
1529	11817
1527	11820
1524	11823
1521	11825
1519	11828
1518	11830
1517	11833
1516	11835
1515	11837
1515	11840
1514	11842
1514	11845
1514	11847
1513	11850
1513	11852
1512	11855
1513	11857
1516	11859
1520	11863
1520	11865
1517	11868
1512	11870
1510	11873
1514	11875
1522	11878
1526	11880
1527	11882
1520	11885
1512	11887
1506	11890
1502	11892
1501	11895
1503	11897
1513	11900
1525	11902
1536	11905
1531	11908
1510	11910
1496	11913
1489	11915
1485	11918
1483	11920
1482	11923
1482	11925
1482	11927
1482	11930
1482	11932
1483	11935
1484	11937
1485	11940
1485	11942
1486	11945
1487	11948
1489	11951
1491	11953
1494	11955
1497	11958
1500	11960
1501	11963
1499	11965
1496	11968
1496	11970
1496	11973
1498	11975
1500	11977
1503	11980
1506	11982
1511	11985
1517	11987
1522	11991
1528	11993
1531	11996
1540	11998
1552	12000
1565	12003
1572	12005
1563	12008
1547	12010
1532	12013
1526	12015
1522	12018
1519	12020
1518	12022
1518	12025
1517	12027
1516	12030
1515	12033
1513	12036
1513	12038
1512	12041
1512	12043
1511	12045
1511	12048
1509	12050
1507	12053
1505	12055
1503	12058
1501	12060
1500	12063
1500	12065
1503	12067
1506	12070
1513	12072
1518	12076
1513	12078
1501	12081
1491	12083
1486	12086
1484	12088
1483	12090
1482	12093
1482	12095
1481	12098
1481	12100
1481	12103
1480	12105
1480	12108
1480	12110
1480	12112
1478	12115
1476	12118
1475	12121
1473	12123
1471	12126
1470	12128
1467	12131
1466	12133
1471	12135
1477	12138
1484	12140
1484	12143
1472	12145
1456	12148
1446	12150
1441	12153
1437	12155
1434	12157
1432	12161
1430	12163
1429	12166
1429	12168
1429	12171
1427	12173
1423	12176
1420	12178
1417	12180
1416	12183
1418	12185
1416	12188
1412	12190
1408	12193
1406	12195
1407	12198
1407	12200
1408	12203
1408	12206
1409	12208
1409	12211
1410	12213
1412	12216
1416	12218
1423	12221
1428	12223
1430	12225
1430	12228
1428	12230
1427	12233
1427	12235
1431	12238
1435	12240
1441	12243
1449	12246
1454	12248
1456	12251
1454	12253
1453	12256
1453	12258
1456	12261
1457	12263
1460	12266
1464	12268
1464	12270
1461	12273
1459	12275
1459	12278
1459	12280
1460	12283
1461	12285
1463	12289
1465	12291
1468	12293
1470	12296
1472	12298
1472	12301
1471	12303
1472	12306
1472	12308
1473	12311
1474	12313
1474	12315
1475	12318
1476	12320
1477	12323
1479	12325
1484	12328
1494	12331
1501	12334
1502	12336
1499	12338
1494	12341
1489	12343
1487	12346
1487	12348
1489	12351
1495	12353
1500	12356
1503	12358
1502	12360
1499	12363
1498	12365
1497	12368
1497	12370
1498	12374
1499	12376
1499	12379
1499	12381
1500	12383
1501	12386
1503	12388
1505	12391
1509	12393
1515	12396
1518	12398
1518	12401
1514	12403
1512	12406
1511	12408
1512	12410
1514	12413
1515	12416
1514	12419
1512	12421
1513	12424
1516	12426
1518	12429
1520	12431
1522	12433
1524	12436
1523	12438
1521	12441
1520	12443
1520	12446
1523	12448
1524	12451
1526	12453
1527	12455
1528	12459
1529	12461
1530	12464
1531	12466
1534	12469
1535	12471
1536	12474
1536	12476
1536	12478
1534	12481
1533	12483
1531	12486
1531	12488
1531	12491
1534	12493
1537	12496
1539	12498
1544	12500
1548	12504
1551	12506
1548	12509
1541	12511
1531	12514
1526	12516
1524	12519
1522	12521
1524	12523
1525	12526
1524	12528
1523	12531
1522	12533
1521	12536
1521	12538
1519	12541
1519	12544
1518	12546
1518	12549
1517	12551
1517	12554
1517	12556
1517	12559
1517	12561
1517	12564
1517	12566
1516	12568
1516	12571
1517	12573
1521	12576
1526	12578
1531	12581
1530	12583
1524	12587
1519	12589
1516	12591
1515	12594
1515	12596
1519	12599
1528	12601
1534	12604
1534	12606
1528	12609
1519	12611
1512	12613
1510	12616
1508	12618
1507	12621
1507	12623
1507	12626
1507	12628
1507	12632
1507	12634
1507	12637
1507	12639
1507	12641
1508	12644
1508	12646
1508	12649
1508	12651
1507	12654
1508	12656
1508	12659
1509	12661
1511	12663
1513	12666
1515	12668
1514	12672
1511	12674
1508	12677
1506	12679
1505	12682
1506	12684
1507	12686
1508	12689
1511	12691
1518	12694
1525	12696
1528	12699
1526	12701
1521	12704
1515	12706
1512	12708
1512	12711
1511	12713
1511	12717
1510	12719
1510	12722
1510	12724
1510	12727
1510	12729
1510	12731
1509	12734
1510	12736
1511	12739
1511	12741
1511	12744
1510	12746
1509	12749
1507	12751
1511	12753
1516	12756
1519	12759
1517	12762
1511	12764
1503	12767
1498	12769
1496	12772
1495	12774
1494	12777
1493	12779
1490	12781
1489	12784
1489	12786
1491	12789
1494	12791
1495	12794
1492	12796
1487	12800
1484	12802
1483	12804
1484	12807
1487	12809
1490	12812
1493	12814
1493	12817
1492	12819
1491	12822
1491	12824
1492	12826
1493	12829
1493	12831
1493	12834
1493	12836
1493	12839
1496	12841
1499	12844
1501	12847
1501	12849
1499	12852
1498	12854
1499	12857
1500	12859
1499	12862
1497	12864
1496	12866
1495	12869
1498	12871
1512	12874
1525	12876
1529	12879
1523	12881
1512	12884
1504	12887
1500	12889
1498	12892
1499	12894
1499	12897
1499	12899
1499	12902
1499	12904
1499	12907
1500	12909
1500	12911
1500	12914
1500	12916
1501	12919
1505	12921
1510	12924
1513	12926
1514	12930
1508	12932
1503	12934
1501	12937
1500	12939
1500	12942
1499	12944
1498	12947
1498	12949
1497	12952
1497	12954
1497	12956
1497	12959
1497	12961
1496	12964
1496	12966
1501	12969
1511	12972
1519	12975
1520	12977
1513	12979
1507	12982
1504	12984
1501	12987
1497	12989
1493	12992
1491	12994
1489	12997
1488	12999
1487	13001
1487	13004
1487	13006
1487	13009
1488	13011
1489	13015
1489	13017
1490	13020
1491	13022
1493	13024
1495	13027
1496	13029
1498	13032
1499	13034
1500	13037
1500	13039
1501	13042
1501	13044
1500	13046
1500	13049
1502	13051
1507	13054
1515	13057
1522	13060
1524	13062
1519	13065
1513	13067
1506	13069
1503	13072
1501	13074
1498	13077
1495	13079
1494	13082
1494	13084
1494	13087
1494	13089
1494	13091
1494	13094
1495	13096
1495	13100
1496	13102
1496	13105
1496	13107
1496	13110
1496	13112
1496	13114
1496	13117
1496	13119
1496	13122
1496	13124
1496	13127
1496	13129
1496	13132
1496	13134
1496	13136
1497	13139
1498	13142
1500	13145
1502	13147
1503	13150
1503	13152
1503	13155
1504	13157
1507	13159
1507	13162
1505	13164
1502	13167
1500	13169
1499	13172
1499	13174
1500	13177
1504	13179
1511	13181
1519	13185
1521	13187
1516	13190
1508	13192
1502	13195
1499	13197
1498	13200
1498	13202
1499	13204
1500	13207
1501	13209
1500	13212
1500	13214
1500	13217
1501	13219
1504	13222
1506	13224
1508	13227
1508	13230
1508	13232
1506	13235
1505	13237
1503	13240
1503	13242
1502	13245
1502	13247
1502	13249
1502	13252
1502	13254
1503	13257
1503	13259
1504	13262
1508	13264
1515	13267
1520	13270
1521	13272
1516	13275
1509	13277
1506	13280
1504	13282
1504	13285
1503	13287
1504	13290
1504	13292
1505	13294
1505	13297
1505	13299
1505	13302
1505	13304
1506	13307
1507	13309
1507	13313
1508	13315
1509	13317
1511	13320
1511	13322
1511	13325
1509	13327
1507	13330
1507	13332
1508	13335
1509	13337
1510	13340
1511	13342
1513	13344
1514	13347
1515	13349
1516	13352
1517	13355
1519	13358
1521	13360
1524	13363
1529	13365
1532	13367
1534	13370
1537	13372
1539	13375
1542	13377
1543	13380
1543	13382