1522	2
1523	5
1522	7
1521	9
1522	11
1522	14
1522	16
1521	18
1522	20
1524	23
1526	25
1528	27
1528	30
1526	32
1525	34
1523	36
1520	39
1519	41
1518	44
1518	47
1516	49
1516	51
1516	53
1518	56
1518	58
1518	60
1518	63
1518	65
1517	67
1518	70
1518	72
1518	74
1518	76
1518	79
1518	81
1519	83
1520	87
1520	89
1518	91
1516	93
1516	96
1515	98
1515	100
1515	103
1516	105
1516	107
1516	110
1515	112
1515	114
1516	117
1516	119
1516	121
1515	124
1516	126
1517	129
1517	132
1518	134
1516	136
1515	139
1515	141
1515	144
1516	146
1518	148
1520	151
1520	153
1520	155
1519	158
1519	160
1517	162
1518	165
1518	167
1518	169
1518	173
1519	175
1520	177
1519	180
1519	182
1519	184
1519	187
1518	189
1516	191
1515	194
1515	196
1516	198
1517	201
1518	203
1519	205
1519	208
1519	210
1518	214
1517	216
1517	218
1518	221
1518	223
1518	225
1518	228
1518	230
1520	232
1521	235
1522	237
1521	239
1520	242
1519	244
1518	246
1518	249
1518	251
1518	253
1518	257
1518	259
1519	261
1520	264
1520	266
1521	268
1521	271
1521	273
1521	275
1521	278
1522	280
1523	283
1523	285
1522	287
1521	290
1521	292
1520	294
1521	297
1521	300
1521	302
1520	305
1519	307
1518	309
1517	312
1517	314
1516	316
1517	319
1517	321
1517	323
1517	326
1515	328
1514	330
1514	333
1514	335
1514	337
1515	340
1515	343
1515	345
1514	348
1513	350
1511	353
1512	355
1513	357
1513	360
1511	362
1509	364
1509	367
1511	369
1513	371
1515	374
1516	376
1517	378
1519	381
1520	384
1521	386
1521	389
1519	391
1517	393
1517	396
1518	398
1519	400
1519	403
1516	405
1513	407
1513	410
1514	412
1515	414
1515	417
1516	419
1517	422
1517	424
1517	427
1517	430
1516	432
1515	434
1514	437
1514	439
1514	441
1515	444
1515	446
1514	448
1513	451
1512	453
1513	455
1514	458
1514	460
1513	462
1513	465
1514	467
1515	470
1516	473
1516	475
1516	477
1517	480
1517	482
1518	484
1517	487
1515	489
1514	491
1514	494
1514	496
1515	499
1516	501
1518	503
1520	506
1521	508
1521	510
1518	514
1515	516
1514	518
1515	521
1516	523
1516	525
1516	528
1517	530
1518	532
1518	535
1517	537
1516	539
1515	542
1515	544
1515	546
1515	549
1516	551
1516	553
1516	557
1516	559
1516	561
1515	564
1514	566
1514	569
1515	571
1517	573
1517	576
1516	578
1515	580
1516	583
1517	585
1516	587
1516	590
1516	592
1516	594
1516	598
1516	600
1517	602
1518	605
1521	607
1522	609
1521	612
1520	614
1518	616
1518	619
1519	621
1519	623
1518	626
1518	628
1517	630
1517	633
1518	635
1519	638
1519	641
1518	643
1519	646
1519	648
1519	650
1519	653
1520	655
1521	657
1521	660
1522	662
1523	664
1522	667
1521	669
1521	671
1521	674
1522	676
1524	678
1526	681
1528	684
1529	686
1529	689
1528	691
1526	693
1524	696
1522	698
1521	700
1522	703
1521	705
1521	707
1522	710
1521	712
1518	715
1516	717
1514	719
1515	722
1514	724
1513	727
1513	730
1514	732
1514	734
1514	737
1512	739
1510	741
1512	744
1514	746
1515	748
1516	751
1516	753
1518	755
1519	758
1519	760
1520	762
1519	765
1519	768
1519	770
1518	773
1519	775
1521	777
1524	780
1527	782
1532	785
1534	787
1532	789
1526	792
1522	794
1522	796
1521	799
1521	801
1520	803
1519	806
1520	808
1521	811
1522	814
1523	816
1525	818
1533	821
1540	823
1544	825
1545	828
1541	830
1535	832
1534	835
1534	837
1533	839
1529	842
1525	844
1521	846
1518	849
1519	851
1520	855
1521	857
1523	859
1528	862
1532	864
1535	866
1534	869
1530	871
1528	873
1526	876
1524	878
1522	880
1522	883
1522	885
1520	887
1516	890
1516	892
1518	894
1518	898
1518	900
1518	902
1518	905
1518	907
1520	909
1531	912
1546	914
1554	916
1554	919
1544	921
1533	924
1528	926
1525	928
1524	931
1522	933
1522	935
1523	939
1526	941
1530	943
1530	946
1529	948
1526	950
1522	953
1520	955
1521	957
1525	960
1527	962
1529	964
1533	967
1536	969
1539	971
1544	974
1549	976
1553	978
1554	982
1554	984
1555	986
1555	989
1557	991
1560	994
1568	996
1574	998
1579	1001
1581	1003
1581	1005
1590	1008
1595	1010
1588	1013
1576	1015
1563	1017
1554	1020
1550	1022
1547	1025
1545	1028
1545	1030
1548	1033
1552	1035
1560	1037
1566	1040
1566	1042
1561	1045
1554	1047
1549	1049
1547	1052
1547	1054
1553	1057
1563	1059
1565	1061
1561	1064
1555	1067
1548	1070
1543	1072
1539	1074
1534	1077
1532	1079
1535	1082
1539	1084
1549	1086
1554	1089
1551	1091
1548	1094
1548	1096
1554	1098
1565	1101
1574	1103
1577	1105
1574	1108
1563	1111
1554	1114
1547	1116
1543	1118
1544	1121
1545	1123
1546	1126
1552	1128
1557	1130
1562	1133
1562	1135
1553	1138
1542	1140
1529	1142
1518	1145
1515	1147
1514	1150
1516	1153
1524	1155
1538	1158
1546	1160
1548	1163
1546	1165
1542	1167
1536	1170
1530	1172
1527	1175
1534	1177
1546	1179
1562	1182
1570	1184
1563	1186
1555	1189
1550	1191
1538	1195
1537	1197
1546	1199
1558	1202
1566	1204
1563	1207
1558	1209
1544	1211
1536	1214
1538	1216
1550	1219
1560	1221
1567	1223
1563	1226
1556	1228
1546	1231
1537	1233
1530	1235
1532	1239
1540	1241
1549	1244
1556	1246
1556	1248
1543	1251
1535	1253
1537	1256
1540	1258
1539	1260
1528	1263
1515	1265
1506	1267
1505	1270
1505	1272
1508	1275
1516	1277
1530	1280
1539	1283
1550	1285
1548	1288
1544	1290
1543	1292
1549	1295
1554	1297
1554	1300
1554	1302
1556	1304
1553	1307
1545	1309
1534	1312
1525	1314
1527	1316
1526	1319
1522	1321
1512	1325
1502	1327
1509	1329
1517	1332
1531	1334
1548	1337
1554	1339
1559	1341
1562	1344
1563	1346
1555	1348
1550	1351
1553	1353
1569	1356
1582	1358
1586	1360
1585	1363
1578	1366
1579	1369
1592	1371
1603	1373
1614	1376
1611	1378
1602	1381
1582	1383
1560	1385
1551	1388
1556	1390
1575	1393
1594	1395
1601	1397
1593	1400
1580	1402
1580	1405
1581	1408
1575	1410
1564	1413
1552	1415
1553	1418
1571	1420
1591	1422
1587	1425
1568	1427
1550	1430
1546	1432
1562	1434
1591	1437
1610	1439
1599	1441
1591	1444
1593	1446
1590	1449
1602	1452
1617	1454
1644	1457
1668	1459
1670	1462
1658	1464
1642	1466
1620	1469
1597	1471
1581	1474
1584	1476
1594	1478
1606	1481
1612	1483
1606	1486
1595	1488
1580	1490
1568	1494
1571	1496
1585	1499
1602	1501
1599	1503
1583	1506
1572	1508
1596	1511
1631	1513
1656	1515
1658	1518
1645	1520
1625	1523
1613	1525
1616	1527
1641	1530
1663	1532
1674	1534
1673	1538
1667	1540
1658	1543
1646	1545
1646	1547
1648	1550
1664	1552
1683	1555
1725	1557
1743	1559
1734	1562
1714	1564
1688	1567
1669	1569
1646	1571
1624	1574
1607	1576
1605	1580
1617	1582
1644	1584
1672	1587
1686	1589
1672	1592
1630	1594
1596	1596
1567	1599
1554	1601
1561	1604
1587	1606
1627	1608
1657	1611
1650	1613
1600	1615
1564	1618
1539	1620
1523	1624
1526	1626
1538	1628
1549	1631
1545	1633
1536	1636
1542	1638
1560	1640
1561	1643
1542	1645
1526	1648
1529	1650
1527	1652
1505	1655
1506	1657
1516	1660
1516	1662
1504	1665
1484	1668
1471	1670
1455	1673
1452	1675
1464	1677
1498	1680
1525	1682
1548	1685
1561	1687
1537	1689
1497	1692
1467	1694
1462	1696
1470	1699
1485	1701
1493	1704
1497	1707
1475	1709
1453	1712
1431	1714
1420	1717
1425	1719
1439	1721
1456	1724
1484	1726
1497	1729
1513	1731
1517	1733
1479	1736
1456	1738
1439	1741
1424	1743
1413	1745
1409	1748
1411	1751
1408	1754
1409	1756
1416	1758
1437	1761
1461	1763
1467	1766
1459	1768
1473	1770
1498	1773
1515	1775
1518	1777
1509	1780
1474	1782
1450	1785
1433	1787
1439	1789
1469	1793
1497	1795
1503	1798
1487	1800
1472	1802
1463	1805
1453	1807
1452	1810
1464	1812
1469	1814
1476	1817
1486	1819
1486	1822
1469	1824
1442	1826
1415	1829
1397	1831
1388	1835
1390	1837
1398	1839
1420	1842
1445	1844
1489	1847
1515	1849
1515	1851
1484	1854
1447	1856
1434	1858
1434	1861
1452	1863
1471	1866
1480	1868
1475	1870
1458	1873
1444	1875
1431	1879
1416	1881
1405	1883
1410	1886
1435	1888
1488	1891
1524	1893
1510	1895
1479	1898
1433	1900
1410	1903
1398	1905
1401	1907
1407	1910
1415	1912
1429	1915
1434	1917
1441	1920
1456	1923
1477	1925
1486	1928
1477	1930
1477	1932
1484	1935
1484	1937
1460	1939
1436	1942
1427	1944
1435	1947
1464	1949
1490	1951
1495	1954
1483	1956
1438	1959
1422	1961
1420	1964
1412	1967
1414	1969
1423	1972
1438	1974
1438	1976
1449	1979
1472	1981
1507	1984
1518	1986
1487	1988
1444	1991
1428	1993
1421	1996
1420	1998
1413	2000
1419	2003
1434	2006
1447	2009
1463	2011
1470	2013
1471	2016
1463	2018
1459	2020
1469	2023
1482	2025
1458	2028
1449	2030
1458	2032
1470	2035
1461	2037
1420	2040
1410	2042
1415	2044
1427	2048
1437	2050
1442	2053
1452	2055
1458	2057
1453	2060
1461	2062
1476	2065
1477	2067
1467	2069
1459	2072
1461	2074
1455	2077
1446	2079
1452	2081
1466	2084
1461	2086
1446	2089
1432	2092
1453	2094
1495	2097
1516	2099
1530	2101
1493	2104
1462	2106
1454	2109
1455	2111
1449	2113
1440	2116
1441	2118
1443	2121
1449	2123
1468	2125
1490	2128
1502	2130
1484	2134
1484	2136
1480	2138
1482	2141
1471	2143
1455	2146
1438	2148
1428	2150
1422	2153
1431	2155
1447	2158
1468	2160
1505	2162
1527	2165
1515	2167
1466	2170
1436	2172
1431	2174
1431	2178
1430	2180
1428	2182
1429	2185
1441	2187
1473	2190
1533	2192
1574	2194
1571	2197
1505	2199
1453	2202
1444	2204
1455	2206
1483	2209
1498	2211
1478	2214
1454	2216
1447	2219
1442	2222
1458	2224
1477	2227
1498	2229
1508	2231
1489	2234
1475	2236
1478	2239
1505	2241
1544	2243
1548	2246
1510	2248
1454	2251
1437	2253
1435	2255
1438	2258
1442	2260
1455	2263
1481	2266
1501	2268
1520	2271
1534	2273
1526	2275
1502	2278
1463	2280
1435	2283
1415	2285
1420	2287
1447	2290
1493	2292
1516	2295
1512	2297
1493	2299
1492	2302
1482	2305
1452	2308
1448	2310
1450	2312
1442	2315
1426	2317
1420	2320
1419	2322
1413	2324
1409	2327
1415	2329
1427	2332
1424	2334
1416	2336
1426	2339
1456	2341
1493	2344
1502	2347
1498	2349
1515	2352
1511	2354
1478	2356
1457	2359
1468	2361
1483	2364
1513	2366
1525	2368
1528	2371
1500	2373
1460	2376
1461	2378
1462	2380
1447	2383
1432	2385
1430	2388
1438	2391
1459	2393
1479	2396
1502	2398
1515	2401
1514	2403
1511	2405
1495	2408
1485	2410
1488	2413
1511	2415
1514	2417
1508	2420
1483	2422
1460	2424
1461	2427
1479	2429
1482	2433
1458	2435
1442	2437
1437	2440
1455	2442
1474	2445
1472	2447
1473	2449
1465	2452
1457	2454
1441	2457
1452	2459
1476	2461
1497	2464
1501	2466
1477	2469
1447	2471
1447	2473
1462	2477
1486	2479
1494	2482
1491	2484
1506	2486
1512	2489
1484	2491
1478	2494
1488	2496
1500	2498
1484	2501
1487	2503
1492	2505
1490	2508
1489	2510
1510	2513
1535	2515
1539	2518
1512	2521
1506	2523
1493	2526
1464	2528
1451	2530
1450	2533
1457	2535
1474	2538
1490	2540
1512	2542
1529	2545
1531	2547
1515	2550
1497	2552
1494	2554
1517	2557
1549	2560
1559	2563
1532	2565
1499	2567
1492	2570
1500	2572
1504	2575
1505	2577
1493	2579
1449	2582
1452	2584
1482	2586
1505	2589
1490	2591
1454	2594
1436	2596
1447	2598
1454	2601
1444	2604
1431	2607
1430	2609
1440	2611
1451	2614
1448	2616
1442	2619
1451	2621
1461	2623
1458	2626
1454	2628
1473	2631
1498	2633
1510	2635
1500	2638
1493	2640
1478	2643
1493	2646
1521	2648
1533	2651
1506	2653
1474	2656
1456	2658
1470	2660
1490	2663
1516	2665
1499	2667
1506	2670
1520	2672
1522	2675
1491	2677
1474	2679
1478	2682
1481	2684
1463	2688
1452	2690
1441	2692
1437	2695
1435	2697
1439	2700
1450	2702
1465	2704
1477	2707
1489	2709
1504	2712
1530	2714
1538	2716
1549	2719
1535	2721
1512	2724
1518	2726
1532	2728
1537	2732
1560	2734
1596	2737
1604	2739
1550	2741
1514	2744
1479	2746
1461	2748
1462	2751
1489	2753
1529	2756
1556	2758
1533	2760
1489	2763
1498	2765
1524	2768
1532	2770
1508	2772
1466	2776
1454	2778
1448	2781
1448	2783
1457	2785
1479	2788
1512	2790
1537	2793
1545	2795
1554	2797
1561	2800
1579	2802
1582	2805
1569	2807
1563	2809
1554	2812
1529	2814
1521	2818
1525	2820
1535	2822
1546	2825
1552	2827
1556	2829
1541	2832
1535	2834
1535	2837
1537	2839
1524	2841
1504	2844
1487	2846
1478	2849
1493	2851
1504	2853
1508	2856
1510	2859
1491	2862
1472	2864
1452	2866
1444	2869
1443	2871
1430	2874
1441	2876
1457	2878
1462	2881
1442	2883
1419	2886
1415	2888
1438	2890
1482	2893
1518	2895
1524	2898
1525	2900
1562	2903
1573	2906
1552	2908
1501	2910
1467	2913
1434	2915
1426	2918
1428	2920
1447	2922
1479	2925
1511	2927
1529	2930
1514	2932
1494	2934
1464	2937
1453	2939
1442	2942
1428	2945
1425	2947
1419	2950
1419	2952
1428	2955
1451	2957
1461	2959
1447	2962
1439	2964
1453	2967
1487	2969
1525	2971
1530	2974
1486	2976
1476	2979
1488	2981
1481	2983
1463	2987
1437	2989
1444	2991
1477	2994
1495	2996
1472	2999
1457	3001
1469	3003
1507	3006
1534	3008
1526	3011
1498	3013
1475	3015
1475	3018
1502	3020
1532	3023
1528	3025
1486	3027
1466	3031
1468	3033
1494	3036
1514	3038
1521	3040
1519	3043
1530	3045
1536	3048
1537	3050
1559	3052
1574	3055
1567	3057
1550	3060
1492	3062
1455	3064
1447	3067
1454	3069
1464	3072
1475	3075
1478	3077
1464	3080
1454	3082
1474	3084
1500	3087
1531	3089
1542	3092
1515	3094
1485	3096
1447	3099
1448	3101
1461	3104
1472	3106
1474	3108
1480	3111
1463	3113
1477	3117
1516	3119
1544	3121
1515	3124
1482	3126
1465	3129
1444	3131
1426	3133
1429	3136
1446	3138
1470	3141
1492	3143
1512	3145
1487	3148
1483	3150
1496	3152
1472	3155
1445	3158
1441	3161
1439	3163
1444	3165
1449	3168
1453	3170
1444	3173
1454	3175
1489	3177
1518	3180
1507	3182
1490	3185
1479	3187
1477	3189
1475	3192
1464	3194
1460	3197
1465	3200
1464	3202
1472	3205
1481	3207
1465	3210
1442	3212
1440	3214
1445	3217
1450	3219
1469	3222
1493	3224
1517	3226
1531	3229
1503	3231
1478	3233
1459	3236
1442	3238
1437	3241
1454	3244
1487	3246
1516	3249
1520	3251
1511	3254
1502	3256
1472	3258
1454	3261
1451	3263
1465	3266
1481	3268
1496	3270
1496	3273
1512	3275
1540	3278
1566	3280
1588	3282
1576	3286
1524	3288
1486	3291
1458	3293
1453	3295
1462	3298
1458	3300
1463	3303
1487	3305
1505	3307
1490	3310
1459	3312
1438	3314
1434	3317
1447	3319
1464	3322
1482	3324
1479	3326
1496	3330
1518	3332
1524	3335
1513	3337
1488	3339
1473	3342
1448	3344
1438	3347
1436	3349
1442	3351
1462	3354
1490	3356
1516	3359
1515	3361
1532	3363
1514	3366
1483	3368
1470	3372
1472	3374
1479	3376
1472	3379
1444	3381
1422	3383
1414	3386
1415	3388
1433	3391
1471	3393
1531	3395
1563	3398
1565	3400
1522	3403
1470	3405
1446	3407
1438	3410
1439	3412
1448	3416
1464	3418
1471	3420
1466	3423
1460	3425
1474	3428
1500	3430
1513	3432
1502	3435
1488	3437
1487	3440
1488	3442
1501	3444
1498	3447
1500	3449
1504	3452
1500	3454
1494	3457
1500	3460
1518	3462
1542	3465
1547	3467
1524	3469
1490	3472
1483	3474
1486	3476
1490	3479
1483	3481
1480	3484
1474	3486
1461	3488
1465	3491
1471	3493
1488	3496
1497	3499
1499	3501
1495	3504
1495	3506
1509	3509
1514	3511
1499	3513
1484	3516
1485	3518
1503	3521
1534	3523
1550	3525
1535	3528
1484	3530
1465	3533
1460	3535
1461	3537
1451	3540
1442	3543
1455	3546
1475	3548
1503	3550
1517	3553
1540	3555
1548	3557
1534	3560
1509	3562
1478	3565
1468	3567
1476	3569
1492	3572
1504	3574
1519	3577
1527	3579
1524	3581
1507	3585
1491	3587
1487	3590
1487	3592
1483	3594
1479	3597
1494	3599
1529	3602
1557	3604
1564	3606
1571	3609
1572	3611
1561	3614
1550	3616
1542	3618
1514	3621
1510	3623
1529	3627
1557	3629
1557	3631
1545	3634
1534	3636
1549	3638
1582	3641
1566	3643
1547	3646
1531	3648
1521	3650
1522	3653
1519	3655
1503	3658
1481	3660
1502	3662
1542	3665
1572	3667
1544	3671
1503	3673
1476	3675
1473	3678
1483	3680
1488	3683
1478	3685
1462	3687
1468	3690
1498	3692
1532	3695
1550	3697
1558	3699
1549	3702
1539	3704
1540	3707
1540	3709
1512	3712
1501	3715
1526	3717
1560	3719
1574	3722
1571	3724
1560	3727
1553	3729
1524	3731
1514	3734
1516	3736
1521	3739
1522	3741
1514	3743
1510	3746
1501	3748
1486	3751
1491	3753
1504	3756
1513	3759
1512	3761
1536	3764
1551	3766
1572	3768
1603	3771
1598	3773
1577	3776
1552	3778
1532	3780
1506	3783
1507	3785
1539	3788
1566	3790
1569	3792
1545	3795
1533	3798
1534	3800
1522	3803
1495	3805
1492	3808
1511	3810
1539	3812
1555	3815
1564	3817
1550	3820
1517	3822
1475	3824
1446	3827
1444	3829
1450	3832
1471	3834
1497	3836
1526	3840
1542	3842
1532	3845
1529	3847
1508	3849
1492	3852
1487	3854
1493	3857
1499	3859
1497	3861
1484	3864
1472	3866
1500	3869
1555	3871
1582	3873
1553	3876
1550	3878
1564	3880
1563	3884
1538	3886
1521	3889
1511	3891
1514	3893
1524	3896
1554	3898
1593	3901
1616	3903
1616	3905
1596	3908
1563	3910
1527	3913
1497	3915
1501	3917
1524	3920
1543	3922
1548	3926
1549	3928
1543	3930
1521	3933
1503	3935
1505	3938
1528	3940
1543	3942
1533	3945
1514	3947
1499	3950
1487	3952
1492	3954
1496	3957
1503	3959
1517	3961
1520	3964
1521	3966
1521	3970
1513	3972
1514	3974
1516	3977
1522	3979
1518	3982
1493	3984
1512	3986
1535	3989
1550	3991
1556	3994
1538	3996
1521	3998
1518	4001
1535	4003
1541	4006
1514	4008
1490	4011
1474	4014
1469	4016
1469	4019
1470	4021
1477	4023
1482	4026
1481	4028
1473	4031
1471	4033
1471	4035
1476	4038
1480	4040
1472	4042
1485	4045
1500	4047
1512	4050
1499	4052
1504	4055
1508	4058
1512	4060
1490	4063
1477	4065
1474	4067
1470	4070
1496	4072
1529	4075
1542	4077
1538	4079
1523	4082
1510	4084
1511	4087
1505	4089
1502	4091
1500	4094
1486	4097
1476	4100
1481	4102
1492	4104
1511	4107
1510	4109
1478	4112
1472	4114
1488	4116
1539	4119
1605	4121
1633	4123
1588	4126
1535	4128
1493	4131
1483	4133
1477	4135
1487	4139
1496	4141
1510	4144
1522	4146
1521	4148
1548	4151
1561	4153
1550	4156
1554	4158
1564	4160
1576	4163
1549	4165
1483	4168
1451	4170
1443	4172
1437	4175
1435	4177
1451	4180
1471	4183
1481	4185
1482	4188
1491	4190
1519	4193
1548	4195
1529	4197
1491	4200
1467	4202
1457	4205
1473	4207
1509	4209
1538	4212
1526	4214
1511	4216
1498	4219
1493	4221
1504	4225
1532	4227
1537	4229
1493	4232
1476	4234
1467	4237
1483	4239
1501	4241
1505	4244
1486	4246
1450	4249
1435	4251
1436	4253
1448	4256
1471	4258
1502	4261
1527	4263
1539	4265
1524	4269
1522	4271
1532	4274
1540	4276
1518	4278
1508	4281
1495	4283
1480	4286
1476	4288
1471	4290
1477	4293
1500	4295
1534	4297
1559	4300
1553	4302
1535	4305
1542	4307
1566	4310
1566	4313
1531	4315
1505	4318
1483	4320
1474	4322
1481	4325
1493	4327
1493	4330
1493	4332
1491	4334
1491	4337
1495	4339
1533	4342
1590	4344
1612	4346
1583	4349
1561	4352
1548	4355
1545	4357
1531	4359
1509	4362
1500	4364
1515	4367
1532	4369
1526	4371
1498	4374
1476	4376
1486	4378
1532	4381
1588	4383
1600	4386
1571	4388
1541	4390
1512	4393
1494	4396
1488	4399
1499	4401
1511	4403
1518	4406
1527	4408
1545	4411
1557	4413
1545	4415
1533	4418
1532	4420
1519	4423
1507	4425
1508	4427
1541	4430
1579	4432
1588	4435
1536	4438
1489	4440
1475	4443
1492	4445
1539	4448
1580	4450
1569	4452
1537	4455
1539	4457
1562	4460
1607	4462
1612	4464
1570	4467
1529	4469
1505	4471
1496	4474
1506	4476
1534	4480
1545	4482
1522	4484
1509	4487
1507	4489
1498	4492
1508	4494
1519	4496
1508	4499
1490	4501
1478	4504
1477	4506
1493	4508
1518	4511
1527	4513
1524	4516
1535	4518
1537	4520
1512	4524
1501	4526
1507	4529
1518	4531
1534	4533
1553	4536
1554	4538
1532	4541
1497	4543
1474	4545
1469	4548
1484	4550
1513	4552
1562	4555
1583	4557
1572	4560
1522	4562
1478	4564
1471	4568
1491	4570
1541	4573
1580	4575
1602	4577
1580	4580
1562	4582
1539	4585
1517	4587
1510	4589
1509	4592
1508	4594
1495	4597
1482	4599
1486	4601
1527	4604
1575	4606
1578	4610
1536	4612
1527	4614
1528	4617
1521	4619
1494	4622
1486	4624
1482	4626
1500	4629
1514	4631
1515	4633
1488	4636
1465	4638
1478	4641
1510	4643
1558	4645
1576	4648
1554	4651
1537	4654
1534	4656
1550	4658
1563	4661
1572	4663
1569	4666
1549	4668
1536	4670
1535	4673
1552	4675
1574	4678
1588	4680
1573	4682
1565	4685
1548	4687
1527	4690
1531	4692
1549	4695
1580	4698
1588	4700
1600	4703
1599	4705
1610	4707
1605	4710
1577	4712
1542	4714
1500	4717
1473	4719
1459	4722
1459	4724
1479	4726
1498	4729
1526	4731
1535	4734
1513	4737
1504	4739
1493	4742
1477	4744
1486	4747
1489	4749
1485	4751
1497	4754
1503	4756
1495	4759
1481	4761
1509	4763
1563	4766
1590	4768
1573	4771
1536	4773
1527	4775
1553	4779
1590	4781
1604	4784
1575	4786
1546	4788
1548	4791
1556	4793
1537	4795
1509	4798
1502	4800
1515	4803
1528	4805
1529	4807
1531	4810
1536	4812
1547	4815
1546	4817
1533	4819
1521	4823
1507	4825
1511	4828
1512	4830
1494	4832
1472	4835
1458	4837
1463	4840
1476	4842
1509	4844
1544	4847
1559	4849
1559	4852
1552	4854
1532	4856
1525	4859
1534	4861
1546	4865
1541	4867
1534	4869
1526	4872
1539	4874
1571	4876
1598	4879
1591	4881
1554	4884
1526	4886
1538	4888
1570	4891
1592	4893
1555	4896
1511	4898
1483	4900
1465	4903
1456	4905
1457	4909
1464	4911
1477	4913
1482	4916
1482	4918
1469	4921
1465	4923
1468	4925
1478	4928
1485	4930
1497	4933
1502	4935
1484	4937
1486	4940
1506	4942
1522	4945
1524	4947
1496	4950
1451	4953
1427	4955
1429	4958
1455	4960
1482	4962
1495	4965
1478	4967
1452	4969
1438	4972
1443	4974
1471	4977
1494	4979
1491	4981
1473	4984
1477	4986
1502	4989
1534	4992
1554	4994
1554	4997
1537	4999
1519	5002
1502	5004
1488	5006
1499	5009
1513	5011
1530	5014
1528	5016
1513	5018
1503	5021
1511	5023
1542	5026
1584	5028
1587	5030
1544	5033
1534	5036
1546	5039
1565	5041
1583	5043
1584	5046
1565	5048
1523	5050
1504	5053
1500	5055
1504	5058
1522	5060
1539	5062
1565	5065
1597	5067
1608	5070
1579	5072
1515	5074
1487	5078
1495	5080
1523	5083
1557	5085
1570	5087
1535	5090
1529	5092
1523	5095
1519	5097
1525	5099
1524	5102
1518	5104
1517	5107
1531	5109
1555	5111
1557	5114
1517	5116
1483	5120
1462	5122
1453	5124
1450	5127
1461	5129
1474	5131
1477	5134
1468	5136
1472	5139
1477	5141
1496	5143
1531	5146
1557	5148
1549	5151
1506	5153
1468	5155
1459	5158
1452	5160
1439	5164
1442	5166
1442	5168
1451	5171
1475	5173
1525	5176
1563	5178
1550	5180
1520	5183
1480	5185
1486	5188
1497	5190
1511	5192
1506	5195
1494	5197
1465	5200
1443	5202
1437	5204
1447	5208
1470	5210
1503	5212
1524	5215
1521	5217
1503	5220
1496	5222
1483	5224
1467	5227
1458	5229
1470	5232
1514	5234
1558	5236
1568	5239
1550	5241
1534	5244
1543	5246
1540	5249
1513	5252
1501	5254
1517	5257
1549	5259
1572	5261
1579	5264
1554	5266
1525	5269
1500	5271
1493	5273
1479	5276
1470	5278
1482	5280
1519	5283
1565	5285
1577	5288
1543	5291
1501	5293
1463	5296
1451	5298
1447	5301
1444	5303
1439	5305
1439	5308
1449	5310
1469	5313
1491	5315
1498	5317
1482	5320
1471	5322
1484	5325
1506	5327
1536	5329
1545	5332
1523	5335
1521	5338
1509	5340
1500	5342
1487	5345
1483	5347
1478	5350
1487	5352
1514	5354
1544	5357
1542	5359
1507	5361
1488	5364
1504	5366
1537	5369
1567	5371
1567	5373
1558	5377
1546	5379
1537	5382
1542	5384
1554	5386
1567	5389
1566	5391
1570	5394
1568	5396
1561	5398
1584	5401
1619	5403
1622	5406
1594	5408
1559	5410
1547	5413
1557	5415
1576	5419
1581	5421
1598	5423
1625	5426
1640	5428
1580	5431
1532	5433
1503	5435
1481	5438
1480	5440
1496	5443
1525	5445
1555	5447
1569	5450
1573	5452
1546	5454
1508	5457
1484	5459
1470	5463
1469	5465
1467	5467
1459	5470
1452	5472
1453	5475
1459	5477
1466	5479
1501	5482
1559	5484
1578	5487
1542	5489
1518	5491
1514	5494
1507	5496
1475	5499
1466	5501
1477	5504
1487	5507
1473	5509
1493	5512
1546	5514
1586	5516
1561	5519
1539	5521
1506	5524
1465	5526
1449	5528
1438	5531
1439	5533
1455	5535
1485	5538
1506	5540
1522	5543
1511	5545
1502	5548
1498	5551
1498	5553
1497	5556
1500	5558
1506	5560
1528	5563
1567	5565
1601	5568
1612	5570
1587	5572
1574	5575
1581	5577
1579	5580
1551	5582
1522	5584
1531	5587
1559	5590
1581	5593
1571	5595
1517	5597
1495	5600
1515	5602
1545	5604
1577	5607
1555	5609
1502	5612
1478	5614
1469	5616
1465	5619
1462	5621
1449	5624
1457	5626
1495	5628
1532	5632
1535	5634
1502	5637
1473	5639
1456	5641
1457	5644
1476	5646
1500	5649
1509	5651
1520	5653
1543	5656
1574	5658
1588	5661
1566	5663
1539	5665
1519	5668
1519	5670
1517	5673
1501	5676
1500	5678
1520	5681
1545	5683
1543	5686
1519	5688
1521	5690
1547	5693
1579	5695
1558	5697
1508	5700
1466	5702
1450	5705
1449	5707
1471	5709
1493	5712
1500	5714
1477	5718
1467	5720
1484	5722
1508	5725
1529	5727
1519	5730
1499	5732
1482	5734
1462	5737
1460	5739
1477	5742
1499	5744
1504	5746
1502	5749
1481	5751
1456	5754
1461	5756
1479	5758
1493	5762
1474	5764
1458	5767
1464	5769
1470	5771
1479	5774
1489	5776
1505	5778
1510	5781
1494	5783
1486	5786
1485	5788
1498	5790
1511	5793
1526	5795
1532	5798
1527	5800
1527	5803
1514	5806
1497	5808
1497	5811
1495	5813
1484	5815
1473	5818
1486	5820
1533	5823
1599	5825
1614	5827
1558	5830
1508	5832
1480	5835
1493	5837
1526	5839
1549	5842
1529	5844
1503	5848
1511	5850
1522	5852
1520	5855
1514	5857
1510	5859
1507	5862
1520	5864
1539	5867
1546	5869
1531	5871
1511	5874
1501	5876
1497	5879
1510	5881
1543	5883
1584	5886
1605	5889
1603	5892
1597	5894
1585	5896
1544	5899
1514	5901
1513	5904
1524	5906
1535	5908
1531	5911
1523	5913
1532	5916
1535	5918
1535	5920
1545	5923
1533	5925
1515	5928
1499	5931
1504	5933
1522	5936
1545	5938
1572	5941
1598	5943
1601	5945
1563	5948
1549	5950
1543	5952
1547	5955
1572	5957
1604	5960
1621	5962
1619	5964
1618	5967
1639	5969
1641	5972
1616	5975
1577	5977
1546	5980
1536	5982
1529	5985
1513	5987
1511	5989
1546	5992
1586	5994
1610	5997
1589	5999
1580	6001
1564	6004
1525	6006
1506	6009
1493	6011
1475	6013
1458	6017
1454	6019
1466	6021
1500	6024
1519	6026
1510	6029
1478	6031
1442	6033
1437	6036
1437	6038
1438	6041
1444	6043
1460	6045
1478	6048
1475	6050
1466	6053
1455	6055
1454	6057
1480	6061
1511	6063
1530	6066
1530	6068
1518	6070
1519	6073
1502	6075
1470	6078
1466	6080
1477	6082
1489	6085
1517	6087
1553	6090
1575	6092
1568	6094
1543	6097
1519	6099
1480	6103
1472	6105
1476	6107
1493	6110
1523	6112
1545	6114
1563	6117
1551	6119
1551	6122
1561	6124
1566	6126
1570	6129
1563	6131
1580	6134
1598	6136
1598	6138
1599	6141
1603	6144
1621	6147
1603	6149
1587	6151
1589	6154
1578	6156
1555	6159
1511	6161
1488	6163
1505	6166
1544	6168
1567	6171
1564	6173
1511	6175
1479	6178
1478	6180
1480	6183
1471	6185
1466	6188
1443	6191
1429	6193
1426	6195
1422	6198
1422	6200
1406	6203
1390	6205
1392	6207
1419	6210
1443	6212
1446	6215
1442	6217
1456	6219
1448	6222
1418	6224
1391	6227
1371	6230
1368	6232
1390	6235
1423	6237
1440	6240
1448	6242
1448	6244
1467	6247
1495	6249
1493	6252
1441	6254
1413	6256
1388	6259
1372	6261
1365	6264
1370	6266
1381	6268
1395	6272
1405	6274
1440	6276
1487	6279
1532	6281
1525	6284
1502	6286
1474	6288
1437	6291
1426	6293
1442	6296
1473	6298
1499	6300
1513	6303
1509	6305
1509	6308
1482	6310
1482	6312
1494	6316
1496	6318
1475	6321
1463	6323
1505	6325
1570	6328
1607	6330
1589	6333
1504	6335
1450	6337
1428	6340
1426	6342
1430	6345
1429	6347
1431	6349
1431	6352
1438	6354
1428	6358
1423	6360
1429	6362
1437	6365
1445	6367
1446	6369
1448	6372
1480	6374
1510	6377
1512	6379
1498	6381
1502	6384
1495	6386
1478	6389
1478	6391
1511	6393
1564	6396
1583	6398
1567	6402
1531	6404
1496	6406
1490	6409
1490	6411
1485	6414
1465	6416
1454	6418
1473	6421
1503	6423
1523	6426
1505	6428
1487	6430
1486	6433
1473	6435
1456	6438
1458	6440
1471	6443
1480	6446
1476	6448
1475	6451
1464	6453
1459	6455
1457	6458
1463	6460
1476	6462
1497	6465
1514	6467
1529	6470
1553	6472
1571	6474
1555	6477
1521	6479
1509	6482
1505	6484
1517	6487
1530	6490
1549	6492
1565	6495
1578	6497
1561	6499
1504	6502
1472	6504
1466	6507
1467	6509
1465	6511
1470	6514
1492	6516
1519	6519
1531	6521
1521	6523
1500	6526
1478	6529
1460	6532
1471	6534
1515	6536
1552	6539
1570	6541
1554	6543
1526	6546
1477	6548
1445	6551
1450	6553
1499	6555
1565	6558
1586	6560
1524	6563
1492	6565
1480	6567
1475	6571
1474	6573
1488	6576
1512	6578
1529	6580
1509	6583
1490	6585
1488	6588
1499	6590
1518	6592
1543	6595
1553	6597
1573	6600
1585	6602
1554	6604
1518	6607
1505	6609
1478	6612
1463	6615
1464	6617
1484	6620
1508	6622
1521	6624
1513	6627
1511	6629
1519	6632
1536	6634
1551	6636
1541	6639
1506	6641
1483	6644
1493	6646
1505	6648
1506	6651
1481	6653
1464	6657
1448	6659
1451	6661
1469	6664
1483	6666
1480	6669
1480	6671
1490	6673
1509	6676
1520	6678
1514	6681
1496	6683
1485	6685
1519	6688
1569	6690
1591	6693
1576	6695
1533	6697
1501	6701
1469	6703
1444	6705
1438	6708
1444	6710
1461	6713
1483	6715
1523	6717
1530	6720
1508	6722
1518	6725
1535	6727
1540	6729
1523	6732
1513	6734
1509	6737
1516	6739
1532	6742
1544	6745
1558	6747
1549	6750
1539	6752
1523	6754
1500	6757
1481	6759
1482	6762
1493	6764
1505	6766
1523	6769
1536	6771
1541	6774
1532	6776
1525	6778
1551	6781
1579	6784
1590	6786
1543	6789
1488	6791
1486	6794
1509	6796
1547	6798
1564	6801
1539	6803
1489	6806
1476	6808
1493	6810
1541	6813
1593	6815
1607	6818
1589	6820
1579	6822
1574	6825
1582	6828
1605	6831
1642	6833
1666	6835
1654	6838
1624	6840
1637	6843
1673	6845
1705	6847
1701	6850
1664	6852
1639	6855
1628	6857
1655	6859
1682	6862
1698	6864
1673	6866
1640	6870
1622	6872
1614	6875
1603	6877
1601	6879
1610	6882
1586	6884
1563	6887
1566	6889
1570	6891
1544	6894
1504	6896
1480	6899
1462	6901
1452	6903
1452	6906
1454	6908
1465	6912
1497	6914
1539	6916
1581	6919
1583	6921
1579	6924
1561	6926
1534	6928
1547	6931
1606	6933
1658	6935
1702	6938
1658	6940
1583	6943
1544	6945
1522	6947
1532	6950
1560	6952
1579	6956
1579	6958
1559	6960
1548	6963
1521	6965
1501	6968
1520	6970
1561	6972
1577	6975
1525	6977
1448	6980
1416	6982
1397	6984
1380	6987
1382	6989
1397	6992
1426	6994
1443	6996
1423	7000
1403	7002
1398	7005
1400	7007
1408	7009
1419	7012
1438	7014
1456	7016
1463	7019
1494	7021
1530	7024
1537	7026
1530	7028
1512	7031
1494	7033
1471	7036
1459	7038
1457	7041
1459	7044
1456	7046
1450	7049
1443	7051
1436	7053
1435	7056
1445	7058
1463	7061
1475	7063
1477	7065
1483	7068
1498	7070
1516	7073
1536	7075
1541	7077
1530	7080
1476	7083
1442	7086
1429	7088
1435	7090
1446	7093
1444	7095
1438	7097
1437	7100
1450	7102
1460	7105
1453	7107
1441	7109
1446	7112
1460	7114
1465	7117
1466	7119
1478	7121
1490	7124
1493	7127
1491	7130
1495	7132
1492	7134
1487	7137
1475	7139
1472	7142
1473	7144
1488	7146
1512	7149
1513	7151
1482	7154
1470	7156
1473	7158
1481	7161
1479	7163
1480	7166
1491	7169
1504	7171
1516	7174
1519	7176
1506	7178
1466	7181
1459	7183
1467	7186
1475	7188
1484	7190
1504	7193
1517	7195
1536	7198
1549	7200
1532	7202
1531	7205
1529	7207
1526	7211
1521	7213
1520	7215
1521	7218
1518	7220
1500	7223
1484	7225
1469	7227
1466	7230
1466	7232
1484	7235
1544	7237
1598	7239
1586	7242
1516	7244
1482	7247
1475	7249
1476	7251
1469	7255
1455	7257
1444	7259
1443	7262
1450	7264
1459	7267
1477	7269
1500	7271
1508	7274
1503	7276
1506	7279
1527	7281
1552	7283
1552	7286
1543	7288
1533	7291
1509	7293
1498	7296
1516	7299
1515	7301
1512	7304
1495	7306
1486	7308
1495	7311
1527	7313
1579	7316
1587	7318
1537	7320
1475	7323
1445	7325
1431	7328
1420	7330
1416	7332
1414	7335
1419	7337
1429	7340
1436	7343
1451	7345
1489	7348
1532	7350
1539	7352
1503	7355
1496	7357
1501	7360
1500	7362
1501	7364
1503	7367
1516	7369
1522	7372
1567	7374
1627	7376
1644	7379
1577	7382
1541	7385
1539	7387
1525	7389
1497	7392
1491	7394
1489	7397
1512	7399
1540	7401
1570	7404
1562	7406
1537	7409
1498	7411
1474	7413
1456	7416
1445	7418
1437	7421
1437	7424
1448	7426
1462	7429
1482	7431
1488	7433
1482	7436
1469	7438
1495	7441
1525	7443
1545	7445
1567	7448
1578	7450
1605	7453
1595	7455
1543	7457
1509	7460
1522	7462
1535	7465
1533	7468
1508	7470
1481	7473
1457	7475
1457	7478
1468	7480
1467	7482
1450	7485
1439	7487
1441	7490
1440	7492
1440	7494
1440	7497
1444	7499
1452	7502
1464	7504
1479	7506
1484	7510
1491	7512
1506	7514
1518	7517
1503	7519
1479	7522
1494	7524
1545	7526
1589	7529
1612	7531
1628	7534
1610	7536
1560	7538
1508	7541
1494	7543
1499	7546
1515	7548
1527	7550
1533	7554
1526	7556
1523	7559
1526	7561
1525	7563
1501	7566
1474	7568
1469	7571
1477	7573
1504	7575
1528	7578
1545	7580
1571	7583
1610	7585
1629	7587
1585	7590
1525	7592
1496	7596
1481	7598
1476	7600
1480	7603
1488	7605
1520	7607
1579	7610
1623	7612
1616	7615
1576	7617
1550	7619
1545	7622
1544	7624
1548	7627
1582	7629
1610	7631
1599	7634
1587	7636
1570	7640
1554	7642
1541	7644
1548	7647
1563	7649
1544	7652
1519	7654
1516	7656
1522	7659
1541	7661
1570	7664
1562	7666
1514	7668
1493	7671
1485	7673
1485	7676
1485	7678
1477	7681
1475	7684
1495	7686
1506	7688
1495	7691
1481	7693
1465	7696
1475	7698
1479	7700
1461	7703
1443	7705
1429	7708
1446	7710
1491	7712
1529	7715
1519	7717
1483	7720
1451	7723
1430	7725
1429	7728
1437	7730
1447	7733
1476	7735
1514	7737
1543	7740
1540	7742
1494	7745
1493	7747
1494	7749
1478	7752
1450	7754
1437	7757
1429	7759
1431	7761
1460	7764
1505	7767
1536	7769
1521	7772
1497	7774
1482	7777
1494	7779
1536	7781
1545	7784
1510	7786
1465	7789
1449	7791
1446	7793
1449	7796
1473	7798
1521	7801
1576	7803
1612	7805
1611	7809
1559	7811
1505	7814
1499	7816
1521	7818
1537	7821
1532	7823
1502	7826
1492	7828
1528	7830
1594	7833
1645	7835
1622	7838
1558	7840
1517	7842
1482	7845
1484	7847
1495	7849
1488	7853
1466	7855
1477	7858
1499	7860
1525	7862
1552	7865
1553	7867
1542	7870
1526	7872
1502	7874
1472	7877
1447	7879
1436	7882
1426	7884
1444	7886
1468	7889
1500	7891
1536	7895
1566	7897
1568	7899
1528	7902
1490	7904
1486	7907
1487	7909
1495	7911
1504	7914
1519	7916
1525	7919
1533	7921
1557	7923
1608	7926
1639	7928
1654	7930
1600	7933
1515	7936
1498	7939
1518	7941
1549	7943
1543	7946
1490	7948
1469	7951
1462	7953
1474	7955
1527	7958
1603	7960
1641	7963
1606	7965
1528	7967
1496	7970
1498	7972
1512	7975
1528	7977
1533	7980
1536	7983
1543	7985
1558	7988
1584	7990
1608	7992
1635	7995
1641	7997
1648	8000
1644	8002
1638	8004
1623	8007
1616	8009
1619	8011
1630	8014
1634	8016
1631	8019
1622	8022
1630	8024
1667	8027
1686	8029
1667	8032
1614	8034
1562	8036
1552	8039
1558	8041
1564	8044
1553	8046
1546	8048
1536	8051
1520	8053
1475	8056
1442	8058
1435	8060
1434	8064
1426	8066
1422	8069
1425	8071
1447	8073
1478	8076
1516	8078
1543	8081
1530	8083
1517	8085
1495	8088
1508	8090
1524	8092
1553	8095
1562	8097
1548	8100
1525	8102
1495	8104
1494	8108
1517	8110
1551	8113
1567	8115
1544	8117
1495	8120
1478	8122
1460	8125
1437	8127
1435	8129
1452	8132
1474	8134
1468	8137
1446	8139
1444	8141
1457	8144
1472	8146
1476	8150
1491	8152
1504	8154
1471	8157
1449	8159
1446	8162
1459	8164
1467	8166
1445	8169
1423	8171
1424	8173
1450	8176
1489	8178
1524	8181
1558	8183
1569	8185
1553	8188
1538	8190
1545	8194
1557	8196
1550	8198
1554	8201
1579	8203
1603	8206
1586	8208
1559	8210
1522	8213
1526	8215
1548	8218
1568	8220
1540	8222
1482	8225
1476	8227
1497	8230
1519	8232
1509	8235
1477	8238
1450	8240
1440	8243
1447	8245
1473	8247
1481	8250
1455	8252
1429	8255
1408	8257
1401	8259
1417	8262
1451	8264
1492	8266
1502	8269
1480	8271
1440	8274
1417	8276
1414	8279
1403	8282
1386	8284
1389	8287
1420	8289
1461	8291
1477	8294
1468	8296
1458	8299
1456	8301
1467	8303
1457	8306
1425	8308
1416	8311
1425	8313
1433	8315
1458	8318
1495	8321
1524	8324
1506	8326
1459	8328
1460	8331
1462	8333
1475	8336
1487	8338
1489	8340
1496	8343
1509	8345
1521	8347
1534	8350
1543	8352
1557	8355
1526	8357
1512	8359
1520	8363
1545	8365
1561	8368
1570	8370
1540	8372
1485	8375
1459	8377
1462	8380
1467	8382
1470	8384
1459	8387
1450	8389
1437	8392
1432	8394
1425	8396
1433	8399
1456	8401
1481	8404
1494	8407
1482	8409
1454	8412
1456	8414
1475	8417
1480	8419
1450	8421
1457	8424
1468	8426
1454	8428
1430	8431
1421	8433
1403	8436
1403	8438
1412	8440
1424	8443
1418	8445
1410	8449
1434	8451
1471	8453
1483	8456
1492	8458
1477	8461
1429	8463
1406	8465
1400	8468
1404	8470
1423	8473
1454	8475
1476	8477
1483	8480
1486	8482
1495	8485
1504	8487
1526	8489
1531	8493
1505	8495
1483	8498
1468	8500
1456	8502
1442	8505
1455	8507
1497	8510
1535	8512
1537	8514
1511	8517
1511	8519
1520	8521
1529	8524
1521	8526
1491	8529
1468	8531
1448	8534
1439	8537
1435	8539
1436	8542
1446	8544
1459	8546
1490	8549
1515	8551
1534	8554
1527	8556
1488	8558
1481	8561
1476	8563
1475	8566
1479	8568
1486	8570
1487	8573
1509	8576
1527	8579
1523	8581
1499	8583
1478	8586
1466	8588
1455	8591
1459	8593
1466	8595
1483	8598
1507	8600
1523	8602
1505	8605
1503	8607
1511	8610
1517	8612
1500	8614
1500	8617
1510	8620
1501	8623
1474	8625
1421	8627
1411	8630
1406	8632
1408	8635
1412	8637
1421	8639
1431	8642
1440	8644
1458	8647
1472	8649
1492	8651
1517	8654
1540	8656
1539	8659
1523	8662
1539	8664
1564	8667
1595	8669
1604	8672
1592	8674
1595	8676
1600	8679
1593	8681
1607	8683
1639	8686
1666	8688
1671	8691
1650	8693
1630	8695
1633	8698
1675	8700
1683	8704
1652	8706
1629	8708
1629	8711
1603	8713
1552	8716
1531	8718
1540	8720
1545	8723
1535	8725
1499	8728
1479	8730
1470	8732
1464	8735
1457	8737
1451	8740
1445	8742
1440	8744
1438	8748
1438	8750
1452	8753
1476	8755
1492	8757
1478	8760
1456	8762
1450	8765
1501	8767
1574	8769
1602	8772
1535	8774
1462	8776
1426	8779
1406	8781
1400	8784
1404	8786
1413	8788
1418	8792
1407	8794
1405	8797
1424	8799
1446	8801
1445	8804
1407	8806
1395	8809
1402	8811
1414	8813
1419	8816
1413	8818
1402	8821
1394	8823
1407	8825
1435	8828
1458	8830
1466	8834
1454	8836
1438	8838
1440	8841
1462	8843
1504	8846
1543	8848
1573	8850
1572	8853
1544	8855
1506	8857
1473	8860
1472	8862
1485	8865
1517	8867
1570	8869
1603	8872
1577	8875
1503	8878
1466	8880
1461	8882
1478	8885
1494	8887
1485	8890
1476	8892
1458	8894
1448	8897
1442	8899
1435	8902
1435	8904
1434	8906
1438	8909
1450	8911
1467	8914
1500	8916
1537	8919
1547	8922
1535	8924
1499	8927
1476	8929
1449	8931
1452	8934
1469	8936
1489	8938
1493	8941
1501	8943
1524	8946
1545	8948
1534	8950
1489	8953
1464	8955
1456	8958
1463	8961
1461	8963
1469	8966
1474	8968
1481	8971
1497	8973
1510	8975
1501	8978
1475	8980
1467	8983
1467	8985
1470	8987
1479	8990
1487	8992
1495	8995
1481	8997
1462	8999
1465	9003
1487	9005
1519	9008
1557	9010
1571	9012
1555	9015
1548	9017
1566	9020
1587	9022
1587	9024
1543	9027
1487	9029
1463	9031
1459	9034
1468	9036
1487	9039
1494	9041
1486	9043
1465	9047
1479	9049
1518	9052
1546	9054
1524	9056
1493	9059
1478	9061
1481	9064
1492	9066
1506	9068
1516	9071
1505	9073
1500	9076
1509	9078
1506	9080
1492	9083
1482	9085
1473	9089
1476	9091
1482	9093
1504	9096
1557	9098
1597	9101
1587	9103
1563	9105
1545	9108
1531	9110
1505	9112
1481	9115
1473	9117
1504	9120
1576	9122
1634	9124
1619	9127
1533	9129
1497	9133
1483	9135
1489	9137
1513	9140
1537	9142
1539	9145
1542	9147
1532	9149
1537	9152
1539	9154
1527	9157
1520	9159
1524	9161
1549	9164
1569	9166
1592	9169
1583	9171
1561	9174
1564	9177
1567	9179
1550	9182
1519	9184
1497	9186
1486	9189
1484	9191
1482	9193
1490	9196
1495	9198
1497	9201
1498	9203
1497	9205
1501	9208
1498	9210
1501	9213
1497	9216
1492	9218
1497	9221
1512	9223
1530	9226
1543	9228
1539	9230
1530	9233
1536	9235
1541	9238
1553	9240
1546	9242
1559	9245
1579	9247
1575	9250
1556	9252
1524	9254
1516	9257
1514	9260
1518	9263
1534	9265
1532	9267
1499	9270
1468	9272
1466	9274
1474	9277
1486	9279
1493	9282
1509	9284
1539	9286
1549	9289
1537	9291
1526	9294
1528	9296
1541	9298
1556	9302
1570	9304
1580	9307
1581	9309
1594	9311
1601	9314
1600	9316
1585	9319
1560	9321
1563	9323
1592	9326
1615	9328
1608	9331
1580	9333
1575	9335
1580	9338
1589	9340
1608	9344
1608	9346
1578	9348
1527	9351
1506	9353
1510	9356
1515	9358
1502	9360
1481	9363
1467	9365
1459	9367
1455	9370
1466	9372
1485	9375
1512	9377
1517	9379
1473	9382
1445	9384
1427	9388
1410	9390
1407	9392
1433	9395
1469	9397
1494	9400
1485	9402
1449	9404
1436	9407
1475	9409
1539	9412
1564	9414
1538	9416
1499	9419
1489	9421
1494	9424
1504	9426
1497	9428
1473	9432
1459	9434
1473	9437
1485	9439
1473	9441
1441	9444
1425	9446
1426	9448
1434	9451
1448	9453
1480	9456
1511	9458
1526	9460
1508	9463
1486	9465
1481	9468
1478	9470
1468	9473
1471	9476
1495	9478
1531	9481
1562	9483
1562	9485
1549	9488
1548	9490
1564	9493
1598	9495
1615	9497
1609	9500
1590	9502
1579	9505
1596	9507
1613	9509
1615	9512
1600	9515
1580	9518
1566	9520
1574	9522
1592	9525
1601	9527
1589	9530
1573	9532
1559	9534
1545	9537
1551	9539
1575	9541
1602	9544
1607	9546
1583	9549
1581	9551
1600	9553
1605	9556
1586	9559
1559	9562
1540	9564
1542	9566
1559	9569
1579	9571
1574	9574
1535	9576
1500	9578
1472	9581
1447	9583
1431	9586
1434	9588
1461	9590
1475	9593
1457	9595
1429	9598
1412	9601
1412	9603
1420	9606
1436	9608
1450	9611
1447	9613
1439	9615
1430	9618
1434	9620
1448	9622
1461	9625
1459	9627
1452	9630
1450	9632
1445	9634
1459	9637
1481	9639
1477	9643
1440	9645
1438	9647
1451	9650
1464	9652
1445	9655
1436	9657
1440	9659
1468	9662
1514	9664
1568	9667
1601	9669
1581	9671
1504	9674
1466	9676
1457	9679
1467	9681
1481	9683
1485	9687
1479	9689
1477	9692
1488	9694
1506	9696
1520	9699
1536	9701
1560	9703
1591	9706
1598	9708
1601	9711
1599	9713
1595	9715
1605	9718
1625	9720
1645	9723
1650	9725
1637	9728
1595	9731
1557	9733
1533	9736
1515	9738
1507	9740
1514	9743
1522	9745
1531	9748
1532	9750
1525	9752
1529	9755
1521	9757
1513	9760
1501	9762
1485	9764
1461	9767
1455	9769
1464	9773
1478	9775
1473	9777
1446	9780
1432	9782
1435	9784
1444	9787
1459	9789
1464	9792
1482	9794
1488	9796
1492	9799
1483	9801
1428	9804
1409	9806
1406	9808
1406	9811
1406	9814
1420	9817
1437	9819
1431	9821
1426	9824
1426	9826
1430	9829
1460	9831
1481	9833
1489	9836
1467	9838
1453	9841
1467	9843
1486	9845
1492	9848
1493	9850
1515	9853
1506	9856
1484	9858
1460	9861
1439	9863
1440	9865
1453	9868
1470	9870
1471	9873
1464	9875
1456	9877
1448	9880
1449	9882
1451	9885
1460	9887
1477	9889
1513	9892
1535	9894
1520	9897
1492	9900
1465	9902
1451	9905
1448	9907
1456	9910
1461	9912
1456	9914
1459	9917
1465	9919
1463	9922
1466	9924
1476	9926
1495	9929
1495	9931
1464	9934
1445	9936
1442	9938
1456	9942
1484	9944
1525	9946
1545	9949
1536	9951
1502	9954
1493	9956
1490	9958
1479	9961
1476	9963
1471	9966
1457	9968
1450	9970
1447	9973
1449	9975
1463	9978
1478	9980
1475	9982
1455	9986
1479	9988
1524	9991
1549	9993
1538	9995
1505	9998
1483	10000
1489	10003
1524	10005
1557	10007
1566	10010
1548	10012
1542	10015
1534	10017
1527	10020
1520	10022
1510	10025
1510	10028
1518	10030
1542	10033
1573	10035
1582	10038
1571	10040
1529	10043
1504	10045
1501	10048
1504	10050
1485	10052
1466	10055
1464	10057
1472	10060
1485	10062
1504	10065
1527	10067
1557	10071
1577	10073
1572	10076
1552	10078
1534	10080
1532	10083
1534	10085
1534	10088
1539	10090
1543	10093
1543	10095
1544	10098
1544	10100
1533	10102
1532	10105
1533	10107
1545	10110
1560	10113
1563	10116
1549	10118
1532	10121
1526	10123
1523	10125
1530	10128
1534	10130
1519	10133
1506	10135
1505	10138
1492	10140
1490	10143
1515	10145
1556	10147
1568	10150
1535	10152
1499	10156
1477	10158
1466	10161
1466	10163
1462	10166
1461	10168
1462	10170
1464	10173
1470	10175
1478	10178
1485	10180
1497	10183
1543	10185
1606	10188
1643	10190
1610	10192
1558	10195
1539	10198
1535	10201
1535	10203
1520	10206
1497	10208
1493	10211
1500	10213
1503	10215
1512	10218
1511	10220
1512	10223
1514	10225
1518	10228
1509	10230
1486	10233
1490	10235
1527	10237
1552	10241
1543	10243
1493	10246
1462	10248
1457	10251
1464	10253
1484	10256
1510	10258
1520	10260
1496	10263
1477	10265
1468	10268
1478	10270
1485	10273
1493	10275
1479	10278
1449	10280
1427	10283
1437	10286
1454	10288
1468	10291
1456	10293
1440	10296
1429	10298
1446	10301
1484	10303
1516	10305
1526	10308
1504	10310
1482	10313
1450	10315
1440	10318
1435	10320
1435	10323
1434	10326
1437	10328
1448	10331
1456	10333
1457	10336
1442	10338
1425	10341
1436	10343
1460	10346
1487	10348
1501	10350
1518	10353
1522	10355
1507	10358
1488	10360
1463	10363
1427	10365
1417	10369
1431	10371
1461	10373
1474	10376
1473	10378
1466	10381
1472	10383
1489	10386
1504	10388
1511	10391
1513	10393
1498	10395
1491	10398
1508	10400
1547	10403
1588	10405
1609	10408
1582	10411
1553	10414
1539	10416
1543	10418
1561	10421
1565	10423
1548	10426
1532	10428
1569	10431
1620	10433
1653	10436
1613	10438
1546	10440
1513	10443
1489	10445
1488	10448
1489	10450
1495	10454
1499	10456
1507	10459
1504	10461
1500	10463
1498	10466
1509	10468
1522	10471
1528	10473
1507	10476
1477	10478
1470	10481
1481	10483
1483	10485
1473	10488
1454	10490
1452	10493
1495	10496
1558	10499
1590	10501
1541	10504
1489	10506
1473	10508
1477	10511
1516	10513
1555	10516
1571	10518
1549	10521
1495	10523
1463	10526
1458	10528
1464	10530
1471	10533
1491	10535
1520	10539
1550	10541
1567	10544
1564	10546
1557	10549
1527	10551
1496	10553
1478	10556
1484	10558
1505	10561
1520	10563
1518	10566
1509	10568
1510	10571
1514	10573
1525	10575
1530	10578
1535	10580
1540	10584
1566	10586
1593	10589
1608	10591
1588	10594
1541	10596
1520	10598
1524	10601
1549	10603
1565	10606
1561	10608
1542	10611
1522	10613
1512	10616
1509	10618
1515	10620
1522	10624
1526	10626
1521	10629
1529	10631
1540	10634
1542	10636
1530	10639
1522	10641
1517	10643
1494	10646
1475	10648
1461	10651
1464	10653
1488	10656
1520	10658
1557	10661
1559	10663
1545	10665
1505	10669
1482	10671
1471	10674
1465	10676
1455	10679
1439	10681
1415	10684
1393	10686
1397	10688
1421	10691
1442	10693
1445	10696
1430	10698
1441	10701
1474	10703
1512	10706
1544	10708
1543	10711
1527	10714
1496	10716
1468	10719
1459	10721
1460	10724
1488	10726
1531	10729
1544	10731
1510	10733
1466	10736
1470	10738
1485	10741
1499	10743
1490	10746
1470	10748
1460	10752
1466	10754
1472	10756
1484	10759
1499	10761
1508	10764
1516	10766
1516	10769
1509	10771
1490	10774
1475	10776
1458	10779
1461	10781
1474	10783
1495	10786
1494	10788
1461	10791
1458	10793
1456	10797
1444	10799
1429	10801
1437	10804
1463	10806
1500	10809
1516	10811
1502	10814
1522	10816
1543	10819
1541	10821
1552	10823
1555	10826
1551	10828
1541	10831
1530	10833
1514	10836
1506	10839
1504	10842
1501	10844
1488	10846
1494	10849
1496	10851
1497	10854
1483	10856
1473	10859
1481	10861
1491	10864
1492	10866
1492	10868
1489	10871
1487	10873
1486	10876
1491	10878
1494	10882
1488	10884
1480	10887
1467	10889
1470	10891
1492	10894
1513	10896
1515	10899
1502	10901
1526	10904
1559	10906
1556	10909
1516	10911
1477	10913
1459	10916
1472	10918
1500	10921
1512	10924
1494	10927
1480	10929
1489	10932
1495	10934
1491	10936
1500	10939
1541	10941
1568	10944
1568	10946
1561	10949
1555	10951
1562	10954
1525	10956
1477	10958
1469	10961
1460	10963
1456	10967
1464	10969
1470	10972
1476	10974
1485	10977
1503	10979
1493	10981
1463	10984
1446	10986
1440	10989
1455	10991
1476	10994
1468	10996
1446	10999
1443	11001
1443	11003
1442	11006
1461	11009
1487	11012
1511	11014
1526	11017
1527	11019
1546	11022
1554	11024
1549	11027
1517	11029
1478	11031
1451	11034
1419	11036
1408	11039
1445	11041
1500	11044
1525	11046
1499	11048
1439	11052
1424	11054
1447	11057
1470	11059
1478	11062
1450	11064
1424	11067
1418	11069
1417	11072
1423	11074
1429	11076
1432	11079
1434	11081
1445	11084
1456	11086
1485	11089
1536	11091
1582	11095
1601	11097
1563	11099
1537	11102
1523	11104
1493	11107
1480	11109
1486	11112
1487	11114
1482	11117
1489	11119
1507	11121
1545	11124
1548	11126
1539	11129
1513	11131
1477	11134
1474	11137
1488	11140
1501	11142
1505	11144
1518	11147
1520	11149
1482	11152
1464	11154
1466	11157
1470	11159
1459	11162
1451	11164
1468	11166
1502	11169
1500	11171
1476	11174
1479	11176
1480	11180
1490	11182
1512	11185
1533	11187
1528	11189
1493	11192
1464	11194
1427	11197
1418	11199
1434	11202
1447	11204
1443	11207
1429	11209
1463	11211
1511	11214
1537	11216
1518	11219
1479	11222
1439	11225
1431	11227
1434	11230
1443	11232
1443	11234
1446	11237
1458	11239
1468	11242
1473	11244
1475	11247
1485	11249
1493	11252
1478	11254
1477	11256
1480	11259
1464	11261
1439	11265
1422	11267
1451	11270
1489	11272
1512	11275
1536	11277
1528	11279
1514	11282
1497	11284
1486	11287
1483	11289
1444	11292
1433	11294
1438	11297
1468	11299
1532	11301
1583	11304
1588	11307
1550	11310
1519	11312
1507	11315
1519	11317
1551	11320
1566	11322
1547	11325
1511	11327
1541	11329
1595	11332
1628	11334
1593	11337
1530	11339
1530	11342
1540	11344
1532	11347
1503	11350
1496	11352
1490	11355
1478	11357
1470	11360
1473	11362
1466	11365
1450	11367
1431	11370
1419	11372
1425	11374
1440	11377
1477	11379
1528	11382
1572	11384
1592	11387
1566	11389
1550	11393
1529	11395
1497	11397
1463	11400
1446	11402
1432	11405
1436	11407
1472	11410
1535	11412
1592	11415
1596	11417
1555	11419
1499	11422
1464	11424
1456	11427
1458	11429
1462	11432
1464	11435
1489	11438
1515	11440
1501	11442
1477	11445
1487	11447
1506	11450
1525	11452
1515	11455
1473	11457
1459	11460
1457	11462
1471	11464
1481	11467
1493	11469
1502	11472
1507	11474
1516	11478
1553	11480
1595	11483
1610	11485
1576	11487
1522	11490
1513	11492
1569	11495
1642	11497
1679	11500
1618	11502
1540	11505
1516	11507
1532	11509
1572	11512
1598	11514
1572	11517
1509	11520
1482	11523
1479	11525
1490	11528
1529	11530
1563	11532
1568	11535
1530	11537
1491	11540
1483	11542
1479	11545
1479	11547
1487	11550
1511	11552
1528	11554
1529	11557
1502	11559
1470	11563
1459	11565
1460	11568
1465	11570
1470	11573
1475	11575
1505	11577
1543	11580
1561	11582
1556	11585
1554	11587
1569	11590
1573	11592
1557	11595
1536	11597
1516	11599
1485	11602
1466	11604
1466	11608
1465	11610
1460	11613
1463	11615
1477	11618
1501	11620
1524	11622
1536	11625
1527	11627
1509	11630
1489	11632
1482	11635
1487	11637
1487	11640
1476	11642
1460	11644
1461	11648
1481	11650
1500	11653
1496	11655
1475	11658
1472	11660
1499	11663
1547	11665
1586	11667
1594	11670
1585	11672
1560	11675
1548	11677
1527	11680
1510	11682
1501	11685
1503	11687
1515	11689
1531	11693
1538	11695
1533	11698
1528	11700
1524	11703
1523	11705
1525	11708
1527	11710
1531	11712
1538	11715
1549	11717
1556	11720
1559	11722
1556	11725
1545	11727
1537	11730
1544	11732
1568	11736
1595	11738
1602	11740
1562	11743
1529	11745
1516	11748
1516	11750
1520	11753
1517	11755
1508	11758
1493	11760
1486	11762
1484	11765
1499	11767
1512	11770
1513	11772
1500	11776
1491	11778
1500	11781
1502	11783
1480	11785
1467	11788
1466	11790
1473	11793
1479	11795
1483	11798
1484	11800
1485	11803
1490	11805
1500	11807
1515	11810
1524	11812
1530	11815
1542	11817
1550	11821
1563	11823
1566	11826
1564	11828
1568	11830
1574	11833
1578	11835
1577	11838
1579	11840
1585	11843
1598	11845
1608	11848
1606	11850
1607	11852
1608	11855
1613	11857
1621	11860
1633	11863
1641	11866
1642	11868
1634	11871
1634	11873
1631	11875
1622	11878
1622	11880
1625	11883
1630	11885
1631	11888
1628	11890
1622	11893
1613	11895
1615	11897
1623	11900
1622	11902
1600	11906
1582	11908
1576	11911
1569	11913
1562	11916
1555	11918
1548	11920
1543	11923
1541	11925
1541	11928
1541	11930
1542	11933
1538	11935
1530	11938
1524	11940
1520	11942
1518	11945
1515	11948
1513	11951
1518	11953
1524	11956
1529	11958
1532	11961
1536	11963
1537	11965
1527	11968
1511	11970
1501	11973
1504	11975
1518	11978
1532	11980
1535	11983
1522	11985
1505	11987
1498	11991
1496	11993
1501	11996
1510	11998
1518	12001
1514	12003
1501	12006
1497	12008
1498	12010
1499	12013
1499	12015
1498	12018
1497	12020
1496	12023
1497	12025
1497	12028
1498	12030
1503	12033
1518	12036
1531	12038
1534	12041
1524	12043
1509	12046
1498	12048
1491	12051
1487	12053
1486	12055
1485	12058
1486	12060
1486	12063
1488	12065
1492	12068
1494	12070
1489	12073
1478	12076
1469	12078
1458	12081
1451	12083
1447	12086
1445	12088
1443	12091
1442	12093
1441	12096
1441	12098
1440	12100
1440	12103
1442	12105
1443	12108
1442	12110
1439	12113
1436	12115
1434	12119
1433	12121
1433	12123
1433	12126
1435	12128
1441	12131
1455	12133
1475	12136
1496	12138
1508	12141
1492	12143
1472	12145
1465	12148
1462	12150
1461	12153
1464	12155
1467	12158
1471	12161
1475	12164
1479	12166
1482	12168
1484	12171
1485	12173
1488	12176
1491	12178
1494	12181
1497	12183
1498	12186
1498	12188
1499	12190
1501	12193
1503	12195
1506	12198
1508	12200
1510	12204
1510	12206
1509	12209
1509	12211
1509	12213
1508	12216
1507	12218
1507	12221
1509	12223
1514	12226
1518	12228
1518	12231
1515	12233
1510	12235
1507	12238
1505	12240
1505	12243
1505	12246
1506	12249
1507	12251
1510	12254
1511	12256
1511	12258
1514	12261
1520	12263
1522	12266
1518	12268
1512	12271
1506	12273
1501	12276
1497	12278
1494	12280
1493	12283
1491	12285
1490	12289
1489	12291
1489	12294
1489	12296
1489	12299
1487	12301
1486	12303
1485	12306
1484	12308
1484	12311
1485	12313
1485	12316
1485	12318
1486	12321
1487	12323
1488	12325
1489	12328
1488	12331
1487	12334
1484	12336
1483	12339
1481	12341
1481	12344
1481	12346
1482	12348
1483	12351
1486	12353
1488	12356
1488	12358
1483	12361
1479	12363
1475	12366
1472	12368
1470	12370
1469	12374
1469	12376
1469	12379
1468	12381
1467	12384
1467	12386
1467	12389
1469	12391
1470	12394
1469	12396
1467	12398
1465	12401
1464	12403
1463	12406
1463	12408
1463	12411
1463	12413
1466	12416
1472	12419
1474	12421
1474	12424
1471	12426
1471	12429
1470	12431
1468	12434
1464	12436
1461	12438
1460	12441
1462	12443
1466	12446
1468	12448
1466	12451
1463	12453
1460	12456
1460	12459
1461	12461
1463	12464
1464	12466
1464	12469
1463	12471
1463	12474
1464	12476
1465	12479
1466	12481
1466	12484
1466	12486
1466	12488
1467	12491
1469	12493
1470	12496
1470	12498
1470	12502
1471	12504
1471	12507
1473	12509
1477	12511
1481	12514
1483	12516
1483	12519
1480	12521
1477	12524
1476	12526
1476	12528
1476	12531
1478	12533
1479	12536
1479	12538
1478	12541
1477	12544
1477	12547
1476	12549
1475	12552
1475	12554
1475	12556
1476	12559
1477	12561
1479	12564
1481	12566
1481	12569
1483	12571
1484	12574
1484	12576
1481	12578
1477	12581
1475	12583
1475	12587
1474	12589
1471	12592
1467	12594
1463	12597
1463	12599
1466	12601
1468	12604
1466	12606
1462	12609
1458	12611
1455	12614
1454	12616
1454	12619
1453	12621
1451	12623
1449	12626
1447	12628
1445	12632
1444	12634
1443	12637
1442	12639
1441	12642
1441	12644
1441	12646
1441	12649
1441	12651
1441	12654
1441	12656
1442	12659
1442	12661
1443	12664
1444	12666
1446	12668
1448	12672
1450	12674
1451	12677
1452	12679
1457	12682
1461	12684
1462	12687
1461	12689
1458	12691
1456	12694
1456	12696
1459	12699
1462	12701
1462	12704
1462	12706
1461	12709
1463	12711
1465	12713
1467	12717
1470	12719
1469	12722
1469	12724
1471	12727
1476	12729
1479	12732
1479	12734
1476	12736
1474	12739
1473	12741
1474	12744
1475	12746
1477	12749
1478	12751
1479	12754
1479	12756
1481	12759
1484	12762
1486	12764
1488	12767
1488	12769
1488	12772
1489	12774
1490	12777
1491	12779
1492	12782
1493	12784
1495	12786
1497	12789
1500	12791
1503	12794
1507	12796
1512	12800
1517	12802
1517	12805
1514	12807
1510	12809
1503	12812
1500	12814
1498	12817
1497	12819
1498	12822
1503	12824
1507	12827
1510	12829
1508	12831
1505	12834
1502	12836
1498	12839
1496	12841
1494	12845
1494	12847
1493	12849
1493	12852
1492	12854
1493	12857
1495	12859
1497	12862
1498	12864
1498	12867
1497	12869
1494	12871
1492	12874
1493	12876
1494	12879
1494	12881
1495	12884
1495	12887
1495	12890
1496	12892
1497	12894
1498	12897
1498	12899
1499	12902
1499	12904
1500	12907
1501	12909
1502	12912
1503	12914
1502	12916
1502	12919
1503	12921
1503	12924
1503	12926
1504	12930
1507	12932
1513	12935
1518	12937
1520	12939
1517	12942
1514	12944
1516	12947
1520	12949
1520	12952
1516	12954
1510	12957
1503	12959
1502	12961
1501	12964
1501	12966
1501	12969
1501	12972
1501	12975
1502	12977
1502	12980
1502	12982
1502	12984
1502	12987
1503	12989
1502	12992
1503	12994
1505	12997
1505	12999
1506	13002
1506	13004
1505	13006
1505	13009
1506	13011
1507	13015
1507	13017
1508	13020
1508	13022
1508	13025
1508	13027
1508	13029
1509	13032
1512	13034
1516	13037
1517	13039
1517	13042
1515	13044
1511	13047
1510	13049
1513	13051
1517	13054
1518	13057
1515	13060
1510	13062
1507	13065
1506	13067
1507	13070
1509	13072
1511	13074
1510	13077
1508	13079
1506	13082
1505	13084
1504	13087
1504	13089
1504	13092
1505	13094
1506	13096
1507	13100
1507	13102
1507	13105
1508	13107
1508	13110
1510	13112
1512	13115
1514	13117
1515	13119
1514	13122
1514	13124
1514	13127
1514	13129
1514	13132
1515	13134
1515	13137
1515	13139
1515	13142
1518	13145
1524	13147
1529	13150
1532	13152
1533	13155
1529	13157
1524	13160
1522	13162
1520	13164
1520	13167
1520	13169
1519	13172
1520	13174
1521	13177
1522	13179
1523	13182
1524	13185
1525	13187
1525	13190
1526	13192
1526	13195
1527	13197
1528	13200
1529	13202
1529	13205
1529	13207
1528	13209
1528	13212
1528	13214
1528	13217
1528	13219
1528	13222
1528	13224
1529	13228
1529	13230
1529	13232
1529	13235
1529	13237
1529	13240
1530	13242
1532	13245
1534	13247
1535	13250
1535	13252
1532	13254
1529	13257
1527	13259
1526	13262
1525	13264
1525	13267
1524	13270
1523	13273
1523	13275
1523	13277
1525	13280
1529	13282
1538	13285
1548	13287
1551	13290
1546	13292
1536	13295
1528	13297
1523	13299
1521	13302
1519	13304
1518	13307
1516	13309
1516	13313
1516	13315
1516	13318
1515	13320
1515	13322
1514	13325
1514	13327
1515	13330
1515	13332
1516	13335
1517	13337
1517	13340
1517	13342
1518	13344
1519	13347
1519	13349
1520	13352
1521	13355
1521	13358
1522	13360
1523	13363
1523	13365
1523	13367
1522	13370
1522	13372
1521	13375
1520	13377
1519	13380
1520	13382
1520	13385
1519	13387
1519	13389
1519	13392
1520	13394
1522	13398
1526	13400
1527	13403