1554	2
1554	5
1553	7
1553	9
1552	11
1552	14
1552	16
1554	18
1555	20
1556	23
1557	25
1557	27
1558	30
1557	32
1556	34
1555	36
1554	39
1555	41
1556	44
1556	47
1556	49
1555	51
1554	53
1552	56
1551	58
1552	60
1552	63
1553	65
1553	67
1553	70
1554	72
1554	74
1555	76
1555	79
1553	81
1552	83
1551	87
1551	89
1551	91
1552	93
1552	96
1551	98
1551	100
1551	103
1550	105
1549	107
1549	110
1549	112
1550	114
1551	117
1552	119
1553	121
1554	124
1553	126
1551	129
1551	132
1551	134
1551	136
1551	139
1551	141
1550	144
1549	146
1548	148
1548	151
1548	153
1548	155
1548	158
1548	160
1550	162
1550	165
1548	167
1547	169
1546	173
1546	175
1547	177
1547	180
1549	182
1550	184
1550	187
1550	189
1549	191
1547	194
1547	196
1548	198
1550	201
1551	203
1552	205
1552	208
1551	210
1548	214
1546	216
1545	218
1544	221
1545	223
1545	225
1546	228
1547	230
1546	232
1545	235
1542	237
1541	239
1542	242
1543	244
1542	246
1541	249
1541	251
1541	253
1542	257
1541	259
1541	261
1541	264
1541	266
1541	268
1540	271
1541	273
1542	275
1543	278
1543	280
1541	283
1540	285
1537	287
1537	290
1537	292
1538	294
1538	297
1539	300
1540	302
1540	305
1541	307
1542	309
1543	312
1542	314
1540	316
1540	319
1540	321
1540	323
1540	326
1540	328
1541	330
1541	333
1542	335
1542	337
1542	340
1542	343
1543	345
1544	348
1545	350
1544	353
1543	355
1543	357
1543	360
1543	362
1541	364
1540	367
1540	369
1541	371
1542	374
1543	376
1544	378
1545	381
1545	384
1545	386
1545	389
1546	391
1547	393
1548	396
1548	398
1548	400
1547	403
1546	405
1546	407
1545	410
1546	412
1546	414
1545	417
1544	419
1544	422
1545	424
1545	427
1545	430
1544	432
1544	434
1544	437
1544	439
1545	441
1549	444
1555	446
1558	448
1559	451
1556	453
1551	455
1549	458
1547	460
1546	462
1545	465
1544	467
1542	470
1539	473
1538	475
1539	477
1540	480
1540	482
1541	484
1541	487
1541	489
1541	492
1541	494
1541	496
1541	499
1539	501
1538	503
1537	506
1538	508
1540	510
1539	514
1536	516
1533	518
1533	521
1534	523
1537	525
1539	528
1540	530
1541	532
1540	535
1539	537
1537	539
1536	542
1536	544
1537	546
1537	549
1537	551
1537	553
1536	557
1535	559
1535	562
1536	564
1536	566
1536	569
1535	571
1535	573
1534	576
1532	578
1532	580
1532	583
1534	585
1535	587
1535	590
1534	592
1533	594
1533	598
1535	600
1536	602
1537	605
1537	607
1535	609
1533	612
1532	614
1532	616
1533	619
1535	621
1537	623
1537	626
1536	628
1535	631
1534	633
1533	635
1532	638
1531	641
1531	643
1531	646
1529	648
1528	650
1527	653
1527	655
1528	657
1529	660
1530	662
1531	664
1531	667
1531	669
1529	671
1528	674
1529	676
1530	678
1530	681
1530	684
1530	686
1529	689
1529	691
1529	693
1530	696
1530	698
1530	700
1530	703
1530	705
1530	708
1530	710
1530	712
1530	715
1532	717
1532	719
1532	722
1531	724
1531	727
1531	730
1531	732
1530	734
1530	737
1529	739
1529	741
1530	744
1529	746
1528	748
1526	751
1525	753
1524	755
1525	758
1525	760
1527	762
1528	765
1529	768
1530	770
1530	773
1530	775
1529	778
1528	780
1529	782
1529	785
1529	787
1530	789
1531	792
1533	794
1532	796
1531	799
1531	801
1531	803
1529	806
1527	808
1525	811
1524	814
1525	816
1525	818
1528	821
1530	823
1531	825
1531	828
1531	830
1530	832
1529	835
1529	837
1528	839
1527	842
1526	844
1525	847
1526	849
1527	851
1528	855
1529	857
1530	859
1531	862
1531	864
1529	866
1527	869
1527	871
1527	873
1529	876
1529	878
1529	880
1528	883
1528	885
1527	887
1526	890
1525	892
1524	894
1524	898
1523	900
1523	902
1522	905
1522	907
1523	909
1523	912
1523	914
1521	917
1520	919
1520	921
1520	924
1520	926
1519	928
1519	931
1518	933
1517	935
1517	939
1518	941
1518	943
1516	946
1514	948
1515	950
1516	953
1517	955
1517	957
1516	960
1516	962
1516	964
1516	967
1516	969
1517	971
1519	974
1520	976
1519	978
1519	982
1520	984
1520	986
1519	989
1518	991
1518	994
1518	996
1517	998
1516	1001
1516	1003
1517	1005
1517	1008
1517	1010
1517	1013
1518	1015
1519	1017
1520	1020
1521	1022
1522	1026
1521	1028
1518	1030
1519	1033
1522	1035
1524	1037
1526	1040
1527	1042
1530	1045
1532	1047
1531	1049
1527	1052
1522	1054
1521	1057
1523	1059
1525	1061
1526	1064
1526	1067
1525	1070
1523	1072
1522	1074
1521	1077
1522	1079
1524	1082
1527	1084
1529	1086
1529	1089
1530	1091
1529	1094
1527	1096
1525	1098
1524	1101
1523	1103
1523	1105
1525	1108
1527	1111
1527	1114
1528	1116
1531	1118
1531	1121
1529	1123
1527	1126
1526	1128
1528	1130
1532	1133
1538	1135
1542	1138
1541	1140
1539	1142
1536	1145
1535	1147
1539	1150
1549	1153
1556	1155
1560	1158
1556	1160
1547	1163
1540	1165
1537	1167
1536	1170
1536	1172
1534	1175
1532	1177
1529	1179
1526	1182
1521	1184
1519	1186
1521	1189
1521	1191
1521	1195
1520	1197
1518	1199
1522	1202
1542	1204
1565	1207
1583	1209
1588	1211
1582	1214
1564	1216
1553	1219
1543	1221
1534	1223
1530	1226
1528	1228
1520	1231
1515	1233
1519	1235
1523	1239
1523	1241
1522	1244
1517	1246
1510	1248
1508	1251
1510	1253
1506	1256
1498	1258
1487	1260
1485	1263
1489	1265
1496	1268
1505	1270
1517	1272
1529	1275
1540	1277
1549	1280
1559	1283
1559	1285
1553	1288
1551	1290
1550	1292
1546	1295
1548	1297
1548	1300
1552	1302
1558	1304
1565	1307
1570	1309
1571	1312
1576	1314
1581	1316
1582	1319
1585	1321
1592	1325
1599	1327
1600	1329
1582	1332
1560	1334
1551	1337
1550	1339
1550	1341
1555	1344
1568	1346
1584	1349
1592	1351
1593	1353
1589	1356
1586	1358
1588	1360
1586	1363
1592	1366
1590	1369
1586	1371
1578	1373
1580	1376
1593	1378
1606	1381
1609	1383
1603	1385
1599	1388
1598	1390
1589	1393
1572	1395
1560	1397
1551	1400
1552	1402
1559	1405
1560	1408
1559	1410
1551	1413
1542	1415
1538	1418
1531	1420
1526	1422
1526	1425
1523	1427
1529	1429
1546	1432
1572	1434
1593	1437
1599	1439
1602	1441
1595	1444
1597	1446
1600	1449
1598	1452
1602	1454
1615	1457
1635	1459
1642	1462
1638	1464
1632	1466
1614	1469
1607	1471
1602	1474
1604	1476
1609	1478
1605	1481
1594	1483
1587	1486
1581	1488
1575	1490
1569	1494
1583	1496
1602	1499
1619	1501
1621	1503
1606	1506
1600	1508
1600	1510
1611	1513
1623	1515
1623	1518
1619	1520
1615	1522
1624	1525
1630	1527
1627	1530
1624	1532
1628	1534
1635	1538
1628	1540
1616	1543
1612	1545
1611	1547
1610	1550
1611	1552
1614	1555
1620	1557
1622	1559
1618	1562
1608	1564
1590	1567
1572	1569
1577	1571
1595	1574
1607	1576
1594	1580
1569	1582
1560	1584
1561	1587
1575	1589
1594	1591
1621	1594
1638	1596
1641	1599
1661	1601
1670	1603
1675	1606
1674	1608
1667	1611
1658	1613
1650	1615
1656	1618
1668	1620
1663	1624
1651	1626
1631	1628
1611	1631
1594	1633
1574	1636
1554	1638
1542	1640
1520	1643
1509	1645
1519	1648
1540	1650
1546	1652
1517	1655
1490	1657
1480	1660
1476	1662
1470	1665
1471	1668
1487	1670
1505	1672
1523	1675
1520	1677
1518	1680
1527	1682
1532	1684
1547	1687
1581	1689
1611	1692
1619	1694
1617	1696
1594	1699
1545	1701
1511	1704
1493	1707
1488	1709
1494	1712
1514	1714
1524	1717
1527	1719
1524	1721
1519	1724
1522	1726
1538	1729
1564	1731
1570	1733
1560	1736
1561	1738
1570	1741
1560	1743
1528	1745
1507	1748
1495	1751
1492	1753
1485	1756
1484	1758
1502	1761
1539	1763
1585	1765
1600	1768
1582	1770
1542	1773
1501	1775
1483	1777
1484	1780
1480	1782
1474	1785
1464	1787
1471	1789
1484	1793
1493	1795
1508	1798
1509	1800
1493	1802
1486	1805
1493	1807
1502	1810
1512	1812
1507	1814
1502	1817
1508	1819
1517	1822
1527	1824
1518	1826
1501	1829
1520	1831
1539	1835
1556	1837
1545	1839
1510	1842
1488	1844
1472	1846
1486	1849
1523	1851
1533	1854
1530	1856
1520	1858
1512	1861
1517	1863
1520	1866
1513	1868
1482	1870
1463	1873
1460	1875
1453	1879
1450	1881
1467	1883
1525	1886
1583	1888
1590	1891
1519	1893
1460	1895
1440	1898
1438	1900
1442	1903
1455	1905
1466	1907
1459	1910
1449	1912
1436	1915
1421	1917
1412	1920
1416	1923
1441	1925
1465	1927
1476	1930
1473	1932
1500	1935
1523	1937
1516	1939
1472	1942
1446	1944
1433	1947
1428	1949
1441	1951
1462	1954
1483	1956
1519	1959
1541	1961
1521	1964
1470	1967
1441	1969
1434	1972
1433	1974
1430	1976
1421	1979
1420	1981
1443	1984
1490	1986
1525	1988
1518	1991
1495	1993
1479	1996
1453	1998
1434	2000
1426	2003
1417	2006
1417	2008
1434	2011
1459	2013
1472	2016
1468	2018
1467	2020
1478	2023
1495	2025
1483	2028
1465	2030
1451	2032
1434	2035
1438	2037
1460	2040
1481	2042
1484	2044
1458	2048
1454	2050
1469	2053
1487	2055
1492	2057
1496	2060
1506	2062
1520	2065
1538	2067
1529	2069
1474	2072
1433	2074
1433	2076
1452	2079
1464	2081
1455	2084
1440	2086
1433	2088
1434	2092
1429	2094
1426	2097
1438	2099
1439	2101
1436	2104
1435	2106
1439	2109
1450	2111
1458	2113
1463	2116
1476	2118
1487	2121
1465	2123
1454	2125
1448	2128
1460	2130
1491	2134
1525	2136
1558	2138
1546	2141
1524	2143
1492	2146
1461	2148
1444	2150
1438	2153
1448	2155
1471	2158
1500	2160
1513	2162
1487	2165
1474	2167
1465	2169
1455	2172
1440	2174
1434	2178
1428	2180
1440	2182
1464	2185
1487	2187
1488	2190
1490	2192
1493	2194
1493	2197
1498	2199
1521	2202
1548	2204
1561	2206
1522	2209
1485	2211
1473	2214
1465	2216
1462	2219
1470	2222
1474	2224
1461	2227
1459	2229
1475	2231
1490	2234
1486	2236
1458	2239
1451	2241
1459	2243
1482	2246
1495	2248
1491	2250
1470	2253
1448	2255
1446	2258
1456	2260
1492	2263
1541	2266
1566	2268
1548	2271
1493	2273
1469	2275
1466	2278
1467	2280
1467	2283
1462	2285
1465	2287
1469	2290
1475	2292
1471	2295
1465	2297
1461	2299
1458	2302
1464	2305
1477	2308
1517	2310
1549	2312
1545	2315
1522	2317
1492	2320
1494	2322
1496	2324
1489	2327
1475	2329
1482	2331
1507	2334
1519	2336
1511	2339
1492	2341
1477	2343
1484	2347
1503	2349
1515	2352
1519	2354
1516	2356
1510	2359
1510	2361
1496	2364
1477	2366
1463	2368
1471	2371
1492	2373
1514	2376
1530	2378
1519	2380
1494	2383
1483	2385
1483	2388
1493	2391
1513	2393
1546	2396
1574	2398
1593	2401
1568	2403
1509	2405
1483	2408
1465	2410
1465	2413
1472	2415
1486	2417
1505	2420
1519	2422
1533	2424
1557	2427
1561	2429
1542	2433
1513	2435
1511	2437
1510	2440
1508	2442
1509	2445
1511	2447
1508	2449
1519	2452
1531	2454
1536	2457
1527	2459
1503	2461
1486	2464
1469	2466
1469	2469
1484	2471
1486	2473
1468	2477
1473	2479
1484	2482
1494	2484
1497	2486
1489	2489
1489	2491
1512	2494
1537	2496
1538	2498
1515	2501
1493	2503
1469	2505
1457	2508
1484	2510
1513	2513
1543	2515
1525	2518
1522	2521
1548	2523
1553	2526
1527	2528
1516	2530
1508	2533
1494	2535
1481	2538
1465	2540
1453	2542
1456	2545
1479	2547
1501	2550
1494	2552
1469	2554
1459	2557
1453	2560
1452	2563
1461	2565
1477	2567
1490	2570
1495	2572
1486	2574
1467	2577
1474	2579
1484	2582
1497	2584
1515	2586
1535	2589
1543	2591
1527	2594
1508	2596
1505	2598
1509	2601
1509	2604
1485	2607
1476	2609
1496	2611
1535	2614
1583	2616
1596	2619
1569	2621
1500	2623
1471	2626
1457	2628
1460	2631
1472	2633
1479	2635
1474	2638
1470	2640
1475	2643
1469	2646
1461	2648
1461	2651
1468	2653
1479	2655
1515	2658
1555	2660
1579	2663
1539	2665
1496	2667
1477	2670
1481	2672
1501	2675
1548	2677
1580	2679
1572	2682
1547	2684
1508	2688
1501	2690
1488	2692
1479	2695
1481	2697
1488	2700
1486	2702
1472	2704
1485	2707
1506	2709
1543	2712
1567	2714
1569	2716
1536	2719
1490	2721
1468	2723
1465	2726
1473	2728
1489	2732
1510	2734
1549	2736
1581	2739
1595	2741
1565	2744
1514	2746
1472	2748
1452	2751
1454	2753
1467	2756
1490	2758
1513	2760
1521	2763
1514	2765
1501	2768
1502	2770
1536	2772
1576	2776
1588	2778
1552	2781
1542	2783
1557	2785
1561	2788
1519	2790
1486	2793
1475	2795
1472	2797
1476	2800
1482	2802
1484	2805
1497	2807
1526	2809
1542	2812
1530	2814
1498	2817
1491	2820
1501	2822
1512	2825
1531	2827
1529	2829
1529	2832
1513	2834
1503	2837
1504	2839
1506	2841
1503	2844
1505	2846
1527	2849
1539	2851
1552	2853
1548	2856
1537	2859
1511	2862
1492	2864
1493	2866
1517	2869
1545	2871
1556	2874
1533	2876
1499	2878
1489	2881
1507	2883
1530	2886
1544	2888
1536	2890
1506	2893
1480	2895
1462	2897
1453	2900
1460	2903
1478	2906
1496	2908
1494	2910
1474	2913
1469	2915
1509	2918
1553	2920
1589	2922
1565	2925
1516	2927
1492	2930
1479	2932
1476	2934
1472	2937
1462	2939
1459	2942
1461	2945
1489	2947
1540	2950
1579	2952
1567	2955
1497	2957
1475	2959
1467	2962
1474	2964
1501	2967
1526	2969
1522	2971
1516	2974
1502	2976
1521	2978
1533	2981
1526	2983
1505	2987
1489	2989
1492	2991
1493	2994
1493	2996
1481	2999
1479	3001
1512	3003
1547	3006
1552	3008
1514	3011
1487	3013
1486	3015
1493	3018
1498	3020
1493	3023
1500	3025
1514	3027
1510	3031
1492	3033
1483	3036
1504	3038
1538	3040
1559	3043
1533	3045
1517	3048
1519	3050
1517	3052
1491	3055
1474	3057
1478	3059
1499	3062
1522	3064
1536	3067
1546	3069
1584	3072
1582	3075
1532	3077
1509	3080
1488	3082
1488	3084
1496	3087
1502	3089
1504	3092
1494	3094
1473	3096
1464	3099
1469	3101
1485	3104
1501	3106
1531	3108
1557	3111
1581	3113
1580	3117
1567	3119
1540	3121
1519	3124
1511	3126
1523	3129
1537	3131
1561	3133
1556	3136
1516	3138
1485	3141
1481	3143
1492	3145
1491	3148
1486	3150
1486	3152
1481	3155
1469	3158
1459	3161
1455	3163
1462	3165
1487	3168
1510	3170
1525	3173
1540	3175
1567	3177
1580	3180
1534	3182
1486	3185
1469	3187
1471	3189
1492	3192
1520	3194
1542	3197
1541	3200
1530	3202
1537	3205
1559	3207
1545	3210
1537	3212
1534	3214
1526	3217
1513	3219
1513	3222
1516	3224
1508	3226
1496	3229
1497	3231
1509	3233
1518	3236
1502	3238
1494	3241
1495	3244
1502	3246
1505	3249
1511	3251
1528	3254
1548	3256
1541	3258
1525	3261
1510	3263
1512	3266
1523	3268
1535	3270
1554	3273
1550	3275
1532	3278
1524	3280
1529	3282
1527	3286
1511	3288
1496	3291
1493	3293
1501	3295
1497	3298
1486	3300
1496	3303
1516	3305
1548	3307
1562	3310
1530	3312
1509	3314
1505	3317
1506	3319
1508	3322
1516	3324
1511	3326
1501	3330
1500	3332
1508	3335
1511	3337
1498	3339
1511	3342
1527	3344
1518	3347
1499	3349
1499	3351
1510	3354
1520	3356
1529	3359
1527	3361
1509	3363
1472	3366
1455	3368
1447	3372
1440	3374
1444	3376
1452	3379
1476	3381
1501	3384
1513	3386
1488	3388
1468	3391
1470	3393
1507	3395
1542	3398
1556	3400
1541	3403
1509	3405
1488	3407
1487	3410
1513	3412
1538	3416
1541	3418
1521	3420
1504	3423
1522	3425
1532	3428
1529	3430
1488	3432
1465	3435
1464	3437
1485	3440
1522	3442
1549	3444
1548	3447
1544	3449
1545	3452
1522	3454
1485	3457
1462	3460
1456	3462
1463	3465
1482	3467
1513	3469
1529	3472
1533	3474
1533	3476
1526	3479
1526	3481
1537	3484
1547	3486
1544	3488
1558	3491
1542	3493
1502	3496
1488	3499
1494	3501
1512	3504
1537	3506
1546	3509
1530	3511
1517	3513
1509	3516
1503	3518
1497	3521
1482	3523
1482	3525
1485	3528
1493	3530
1497	3533
1490	3535
1484	3537
1485	3540
1484	3543
1484	3546
1509	3548
1516	3550
1509	3553
1502	3555
1491	3557
1499	3560
1530	3562
1562	3565
1583	3567
1561	3569
1546	3572
1566	3574
1574	3577
1551	3579
1532	3581
1529	3585
1520	3587
1518	3590
1505	3592
1497	3594
1512	3597
1533	3599
1527	3602
1510	3604
1477	3606
1468	3609
1464	3611
1465	3614
1468	3616
1478	3618
1484	3621
1496	3623
1505	3627
1502	3629
1475	3631
1487	3634
1541	3636
1604	3638
1611	3641
1574	3643
1555	3646
1539	3648
1520	3650
1501	3653
1488	3655
1490	3658
1520	3660
1569	3662
1596	3665
1591	3667
1555	3671
1535	3673
1525	3675
1500	3678
1479	3680
1465	3683
1449	3685
1446	3687
1445	3690
1442	3692
1444	3695
1454	3697
1460	3699
1463	3702
1462	3704
1476	3707
1508	3709
1543	3712
1563	3715
1569	3717
1567	3719
1538	3722
1538	3724
1532	3727
1526	3729
1502	3731
1482	3734
1495	3736
1529	3739
1564	3741
1591	3743
1586	3746
1578	3748
1549	3751
1507	3753
1495	3756
1490	3759
1480	3761
1467	3764
1453	3766
1449	3768
1471	3771
1500	3773
1513	3776
1508	3778
1503	3780
1498	3783
1488	3785
1472	3788
1499	3790
1526	3792
1541	3795
1538	3798
1537	3800
1538	3803
1527	3805
1502	3808
1485	3810
1486	3812
1495	3815
1504	3817
1528	3820
1535	3822
1539	3824
1543	3827
1538	3829
1524	3832
1522	3834
1519	3836
1509	3840
1511	3842
1519	3845
1535	3847
1551	3849
1573	3852
1587	3854
1561	3857
1536	3859
1531	3861
1529	3864
1528	3866
1540	3869
1549	3871
1563	3873
1587	3876
1605	3878
1596	3880
1572	3884
1552	3886
1548	3889
1527	3891
1485	3893
1471	3896
1458	3898
1453	3901
1460	3903
1469	3905
1473	3908
1470	3910
1468	3913
1465	3915
1472	3917
1507	3920
1554	3922
1595	3926
1595	3928
1581	3930
1563	3933
1527	3935
1501	3938
1493	3940
1505	3942
1511	3945
1496	3947
1478	3950
1483	3952
1503	3954
1515	3957
1523	3959
1523	3961
1527	3964
1527	3966
1503	3970
1504	3972
1493	3974
1473	3977
1457	3979
1443	3982
1444	3984
1457	3986
1469	3989
1469	3991
1454	3994
1455	3996
1459	3998
1467	4001
1480	4003
1521	4006
1585	4008
1639	4011
1635	4014
1572	4016
1527	4019
1499	4021
1497	4023
1497	4026
1509	4028
1530	4031
1541	4033
1550	4035
1564	4038
1574	4040
1575	4043
1539	4045
1505	4047
1497	4050
1500	4052
1497	4055
1479	4058
1469	4060
1466	4063
1477	4065
1491	4067
1518	4070
1540	4072
1534	4075
1520	4077
1523	4079
1559	4082
1572	4084
1552	4087
1540	4089
1531	4091
1520	4094
1511	4097
1506	4100
1494	4102
1504	4104
1536	4107
1569	4109
1567	4112
1564	4114
1529	4116
1513	4119
1496	4121
1495	4123
1499	4126
1494	4128
1490	4131
1485	4133
1478	4135
1455	4139
1439	4141
1443	4144
1450	4146
1460	4148
1465	4151
1452	4153
1446	4156
1448	4158
1470	4160
1504	4163
1544	4165
1567	4168
1579	4170
1558	4172
1539	4175
1536	4177
1530	4180
1522	4183
1517	4185
1542	4188
1599	4190
1643	4193
1642	4195
1595	4197
1593	4200
1583	4202
1553	4205
1529	4207
1505	4209
1502	4212
1499	4214
1497	4216
1496	4219
1502	4221
1528	4225
1559	4227
1566	4229
1535	4232
1514	4234
1521	4237
1534	4239
1554	4241
1566	4244
1564	4246
1564	4249
1571	4251
1578	4253
1544	4256
1496	4258
1480	4261
1495	4263
1514	4265
1535	4269
1549	4271
1568	4274
1562	4276
1538	4278
1546	4281
1559	4283
1560	4285
1530	4288
1495	4290
1480	4293
1486	4295
1513	4297
1535	4300
1536	4302
1522	4305
1526	4307
1543	4310
1561	4313
1587	4315
1588	4318
1603	4320
1585	4322
1558	4325
1529	4327
1492	4330
1484	4332
1483	4334
1506	4337
1540	4339
1584	4342
1586	4344
1524	4346
1505	4349
1510	4352
1538	4355
1547	4357
1544	4359
1511	4362
1502	4364
1508	4366
1502	4369
1492	4371
1501	4374
1513	4376
1523	4378
1528	4381
1536	4383
1548	4386
1560	4388
1574	4390
1585	4393
1580	4396
1536	4399
1557	4401
1591	4403
1612	4406
1598	4408
1567	4411
1544	4413
1550	4415
1565	4418
1576	4420
1542	4423
1512	4425
1507	4427
1487	4430
1451	4432
1446	4435
1460	4438
1490	4440
1512	4443
1500	4445
1468	4447
1447	4450
1446	4452
1461	4455
1487	4457
1500	4459
1504	4462
1496	4464
1471	4467
1468	4469
1486	4471
1506	4474
1518	4476
1511	4480
1504	4482
1508	4484
1530	4487
1545	4489
1536	4492
1528	4494
1521	4496
1527	4499
1541	4501
1528	4504
1497	4506
1485	4508
1486	4511
1492	4513
1511	4516
1528	4518
1518	4520
1534	4524
1538	4526
1524	4528
1485	4531
1450	4533
1444	4536
1462	4538
1499	4540
1538	4543
1546	4545
1526	4548
1522	4550
1496	4552
1484	4555
1478	4557
1480	4560
1469	4562
1469	4564
1505	4568
1554	4570
1569	4573
1534	4575
1488	4577
1468	4580
1471	4582
1479	4585
1486	4587
1483	4589
1480	4592
1500	4594
1528	4597
1506	4599
1450	4601
1441	4604
1438	4606
1452	4609
1464	4612
1465	4614
1445	4617
1450	4619
1463	4621
1459	4624
1456	4626
1471	4629
1486	4631
1480	4633
1479	4636
1484	4638
1475	4641
1481	4643
1496	4645
1511	4648
1497	4651
1483	4654
1474	4656
1496	4658
1525	4661
1533	4663
1498	4666
1450	4668
1429	4670
1421	4673
1415	4675
1418	4678
1423	4680
1438	4682
1467	4685
1503	4687
1528	4689
1525	4692
1534	4695
1555	4698
1532	4700
1509	4702
1479	4705
1474	4707
1522	4710
1576	4712
1586	4714
1538	4717
1495	4719
1481	4722
1480	4724
1483	4726
1495	4729
1517	4731
1515	4734
1477	4737
1441	4739
1423	4742
1421	4744
1428	4747
1446	4749
1460	4751
1451	4754
1452	4756
1466	4759
1491	4761
1504	4763
1500	4766
1485	4768
1462	4770
1447	4773
1453	4775
1494	4779
1556	4781
1583	4783
1538	4786
1474	4788
1429	4791
1416	4793
1424	4795
1457	4798
1500	4800
1535	4803
1521	4805
1495	4807
1456	4810
1431	4812
1426	4815
1425	4817
1428	4819
1446	4823
1467	4825
1475	4828
1478	4830
1483	4832
1487	4835
1487	4837
1475	4840
1471	4842
1508	4844
1547	4847
1554	4849
1525	4852
1482	4854
1467	4856
1473	4859
1489	4861
1532	4864
1571	4867
1595	4869
1586	4872
1585	4874
1554	4876
1534	4879
1538	4881
1563	4884
1570	4886
1564	4888
1537	4891
1514	4893
1525	4896
1544	4898
1561	4900
1546	4903
1506	4905
1493	4909
1494	4911
1488	4913
1472	4916
1467	4918
1466	4921
1468	4923
1466	4925
1460	4928
1468	4930
1492	4932
1527	4935
1541	4937
1529	4940
1542	4942
1556	4944
1564	4947
1550	4950
1530	4953
1509	4955
1493	4957
1494	4960
1526	4962
1553	4965
1582	4967
1607	4969
1582	4972
1537	4974
1492	4977
1470	4979
1453	4981
1444	4984
1445	4986
1444	4989
1452	4992
1460	4994
1460	4997
1463	4999
1469	5002
1495	5004
1515	5006
1513	5009
1491	5011
1462	5013
1451	5016
1451	5018
1462	5021
1482	5023
1499	5025
1535	5028
1554	5030
1553	5033
1555	5036
1551	5038
1541	5041
1526	5043
1520	5046
1543	5048
1569	5050
1574	5053
1530	5055
1505	5058
1503	5060
1511	5062
1526	5065
1525	5067
1506	5070
1492	5072
1490	5074
1486	5078
1480	5080
1483	5083
1464	5085
1444	5087
1438	5090
1459	5092
1502	5095
1554	5097
1570	5099
1543	5102
1506	5104
1468	5106
1459	5109
1461	5111
1476	5114
1495	5116
1517	5118
1509	5122
1491	5124
1453	5127
1434	5129
1423	5131
1418	5134
1417	5136
1428	5139
1449	5141
1479	5143
1498	5146
1522	5148
1534	5151
1531	5153
1518	5155
1506	5158
1498	5160
1486	5164
1474	5166
1464	5168
1473	5171
1489	5173
1511	5176
1513	5178
1517	5180
1524	5183
1530	5185
1523	5188
1545	5190
1575	5192
1565	5195
1522	5197
1490	5199
1461	5202
1450	5204
1467	5208
1484	5210
1479	5212
1475	5215
1469	5217
1465	5220
1453	5222
1435	5224
1451	5227
1478	5229
1524	5232
1557	5234
1531	5236
1510	5239
1513	5241
1537	5244
1566	5246
1549	5249
1504	5252
1481	5254
1472	5257
1470	5259
1465	5261
1478	5264
1506	5266
1562	5268
1597	5271
1583	5273
1526	5276
1495	5278
1488	5280
1488	5283
1485	5285
1486	5288
1512	5291
1558	5293
1586	5296
1578	5298
1566	5301
1514	5303
1484	5305
1475	5308
1476	5310
1486	5313
1496	5315
1502	5317
1509	5320
1535	5322
1574	5325
1594	5327
1598	5329
1581	5332
1539	5335
1537	5338
1568	5340
1595	5342
1619	5345
1603	5347
1586	5349
1575	5352
1544	5354
1503	5357
1479	5359
1472	5361
1466	5364
1448	5366
1453	5369
1468	5371
1489	5373
1494	5377
1467	5379
1448	5382
1443	5384
1446	5386
1462	5389
1498	5391
1577	5394
1620	5396
1603	5398
1551	5401
1506	5403
1490	5406
1488	5408
1497	5410
1509	5413
1520	5415
1548	5419
1588	5421
1607	5423
1574	5426
1547	5428
1492	5430
1475	5433
1484	5435
1505	5438
1526	5440
1529	5442
1492	5445
1461	5447
1446	5450
1437	5452
1432	5454
1439	5457
1460	5459
1477	5463
1479	5465
1461	5467
1463	5470
1483	5472
1503	5475
1529	5477
1552	5479
1560	5482
1566	5484
1545	5487
1536	5489
1530	5491
1500	5494
1464	5496
1459	5499
1480	5501
1521	5504
1580	5507
1614	5509
1601	5511
1549	5514
1503	5516
1484	5519
1473	5521
1467	5523
1465	5526
1468	5528
1464	5531
1452	5533
1474	5535
1506	5538
1529	5540
1525	5543
1479	5545
1470	5548
1484	5551
1500	5553
1526	5556
1549	5558
1560	5560
1546	5563
1516	5565
1508	5568
1517	5570
1533	5572
1553	5575
1559	5577
1527	5580
1503	5582
1511	5584
1540	5587
1547	5590
1535	5592
1513	5595
1493	5597
1466	5600
1450	5602
1456	5604
1466	5607
1474	5609
1466	5612
1456	5614
1463	5616
1490	5619
1527	5621
1571	5624
1594	5626
1618	5628
1596	5632
1521	5634
1490	5637
1483	5639
1480	5641
1501	5644
1516	5646
1516	5649
1505	5651
1473	5653
1454	5656
1448	5658
1434	5661
1428	5663
1433	5665
1439	5668
1426	5670
1410	5672
1431	5676
1476	5678
1518	5681
1530	5683
1534	5685
1528	5688
1494	5690
1451	5693
1443	5695
1462	5697
1487	5700
1497	5702
1487	5705
1485	5707
1493	5709
1502	5712
1492	5714
1493	5718
1488	5720
1494	5722
1513	5725
1545	5727
1582	5730
1557	5732
1499	5734
1473	5737
1458	5739
1442	5742
1441	5744
1445	5746
1451	5749
1461	5751
1467	5753
1480	5756
1512	5758
1529	5762
1495	5764
1461	5766
1456	5769
1466	5771
1495	5774
1525	5776
1516	5778
1472	5781
1451	5783
1438	5786
1432	5788
1447	5790
1468	5793
1479	5795
1474	5798
1455	5800
1451	5803
1470	5806
1499	5808
1522	5811
1540	5813
1540	5815
1537	5818
1511	5820
1511	5823
1538	5825
1548	5827
1515	5830
1492	5832
1489	5834
1499	5837
1520	5839
1557	5842
1592	5844
1595	5847
1526	5850
1498	5852
1493	5855
1492	5857
1490	5859
1500	5862
1508	5864
1499	5867
1472	5869
1464	5871
1477	5874
1495	5876
1511	5879
1515	5881
1514	5883
1532	5886
1549	5889
1533	5892
1518	5894
1503	5896
1485	5899
1479	5901
1510	5904
1563	5906
1595	5908
1598	5911
1545	5913
1503	5916
1490	5918
1484	5920
1471	5923
1458	5925
1460	5927
1479	5931
1500	5933
1512	5936
1544	5938
1585	5940
1578	5943
1555	5945
1521	5948
1488	5950
1473	5952
1472	5955
1474	5957
1470	5960
1458	5962
1475	5964
1492	5967
1508	5969
1500	5972
1483	5975
1493	5977
1504	5980
1507	5982
1509	5985
1521	5987
1537	5989
1523	5992
1501	5994
1490	5997
1474	5999
1445	6001
1429	6004
1427	6006
1447	6008
1487	6011
1532	6013
1542	6017
1513	6019
1507	6021
1507	6024
1516	6026
1535	6029
1564	6031
1587	6033
1610	6036
1597	6038
1543	6041
1505	6043
1475	6045
1484	6048
1503	6050
1516	6053
1507	6055
1488	6057
1493	6061
1518	6063
1545	6066
1555	6068
1546	6070
1513	6073
1485	6075
1507	6078
1528	6080
1535	6082
1515	6085
1488	6087
1488	6089
1486	6092
1464	6094
1460	6097
1470	6099
1491	6102
1505	6105
1495	6107
1483	6110
1478	6112
1472	6114
1475	6117
1492	6119
1508	6122
1516	6124
1511	6126
1506	6129
1520	6131
1570	6134
1618	6136
1665	6138
1639	6141
1589	6144
1552	6147
1527	6149
1500	6151
1496	6154
1504	6156
1513	6159
1502	6161
1498	6163
1509	6166
1540	6168
1566	6171
1562	6173
1539	6175
1515	6178
1508	6180
1492	6182
1462	6185
1451	6188
1454	6191
1469	6193
1504	6195
1525	6198
1522	6200
1511	6203
1511	6205
1532	6207
1552	6210
1578	6212
1592	6215
1574	6217
1517	6219
1493	6222
1492	6224
1513	6227
1540	6230
1576	6232
1577	6235
1535	6237
1517	6240
1484	6242
1459	6244
1447	6247
1446	6249
1455	6252
1457	6254
1460	6256
1469	6259
1485	6261
1489	6263
1484	6266
1498	6268
1535	6272
1568	6274
1567	6276
1542	6279
1481	6281
1464	6284
1477	6286
1512	6288
1537	6291
1516	6293
1471	6296
1460	6298
1458	6300
1477	6303
1502	6305
1513	6308
1497	6310
1470	6312
1461	6316
1455	6318
1457	6321
1470	6323
1489	6325
1519	6328
1533	6330
1530	6333
1514	6335
1488	6337
1481	6340
1472	6342
1468	6344
1466	6347
1465	6349
1467	6352
1474	6354
1490	6356
1514	6360
1542	6362
1549	6365
1545	6367
1516	6369
1484	6372
1471	6374
1482	6377
1510	6379
1535	6381
1533	6384
1509	6386
1487	6389
1483	6391
1482	6393
1475	6396
1467	6398
1468	6402
1479	6404
1491	6406
1493	6409
1494	6411
1505	6414
1523	6416
1535	6418
1528	6421
1519	6423
1515	6426
1504	6428
1492	6430
1477	6433
1462	6435
1462	6438
1466	6440
1469	6443
1471	6446
1471	6448
1471	6450
1479	6453
1494	6455
1506	6458
1500	6460
1493	6462
1486	6465
1483	6467
1484	6470
1489	6472
1497	6474
1512	6477
1524	6479
1542	6482
1550	6484
1545	6487
1545	6490
1547	6492
1546	6495
1541	6497
1547	6499
1565	6502
1581	6504
1583	6507
1571	6509
1552	6511
1547	6514
1545	6516
1548	6519
1553	6521
1558	6523
1563	6526
1567	6529
1573	6531
1581	6534
1587	6536
1594	6539
1603	6541
1613	6543
1620	6546
1625	6548
1632	6551
1637	6553
1641	6555
1645	6558
1650	6560
1654	6563
1658	6565
1663	6567
1670	6571
1677	6573
1681	6576
1685	6578
1687	6580
1695	6583
1707	6585
1718	6588
1714	6590
1701	6592
1690	6595
1685	6597
1681	6600
1679	6602
1679	6604
1681	6607
1683	6609
1684	6611
1685	6615
1685	6617
1686	6620
1686	6622
1687	6624
1687	6627
1688	6629
1690	6632
1692	6634
1694	6636
1697	6639
1699	6641
1701	6644
1702	6646
1703	6648
1704	6651
1705	6653
1706	6657
1707	6659
1707	6661
1708	6664
1708	6666
1707	6669
1705	6671
1703	6673
1704	6676
1707	6678
1711	6681
1715	6683
1714	6685
1712	6688
1712	6690
1714	6692
1717	6695
1714	6697
1706	6701
1698	6703
1693	6705
1687	6708
1683	6710
1681	6713
1678	6715
1676	6717
1675	6720
1672	6722
1669	6725
1666	6727
1664	6729
1662	6732
1661	6734
1659	6737
1657	6739
1655	6742
1651	6745
1649	6747
1645	6750
1642	6752
1639	6754
1638	6757
1637	6759
1638	6762
1637	6764
1633	6766
1624	6769
1612	6771
1604	6773
1597	6776
1594	6778
1591	6781
1588	6784
1584	6786
1578	6789
1574	6791
1569	6794
1563	6796
1558	6798
1555	6801
1552	6803
1550	6806
1547	6808
1544	6810
1539	6813
1536	6815
1533	6818
1530	6820
1527	6822
1524	6825
1520	6828
1516	6831
1511	6833
1506	6835
1504	6838
1501	6840
1498	6843
1495	6845
1494	6847
1493	6850
1490	6852
1487	6854
1484	6857
1482	6859
1478	6862
1474	6864
1471	6866
1469	6870
1467	6872
1467	6875
1469	6877
1471	6879
1471	6882
1471	6884
1470	6887
1470	6889
1472	6891
1475	6894
1478	6896
1479	6899
1479	6901
1477	6903
1474	6906
1474	6908
1474	6912
1473	6914
1471	6916
1470	6919
1470	6921
1470	6924
1470	6926
1471	6928
1472	6931
1474	6933
1477	6935
1481	6938
1487	6940
1489	6943
1489	6945
1486	6947
1482	6950
1480	6952
1479	6956
1479	6958
1478	6960
1478	6963
1477	6965
1476	6968
1477	6970
1479	6972
1484	6975
1488	6977
1491	6980
1492	6982
1489	6984
1486	6987
1482	6989
1482	6992
1483	6994
1481	6996
1476	7000
1471	7002
1468	7005
1465	7007
1463	7009
1461	7012
1461	7014
1460	7016
1460	7019
1458	7021
1456	7024
1456	7026
1455	7028
1453	7031
1450	7033
1446	7036
1444	7038
1442	7041
1439	7044
1438	7046
1435	7049
1434	7051
1433	7053
1432	7056
1431	7058
1430	7061
1428	7063
1426	7065
1423	7068
1421	7070
1420	7073
1420	7075
1421	7077
1422	7080
1422	7083
1422	7086
1423	7088
1424	7090
1424	7093
1424	7095
1424	7098
1426	7100
1427	7102
1428	7105
1429	7107
1430	7109
1432	7112
1434	7114
1434	7117
1434	7119
1439	7121
1449	7124
1457	7127
1458	7130
1458	7132
1459	7134
1458	7137
1456	7139
1454	7142
1454	7144
1453	7146
1453	7149
1452	7151
1452	7154
1454	7156
1455	7158
1456	7161
1457	7163
1459	7166
1461	7169
1463	7171
1465	7174
1467	7176
1468	7179
1470	7181
1471	7183
1472	7186
1473	7188
1475	7190
1476	7193
1477	7195
1478	7198
1479	7200
1481	7202
1482	7205
1483	7207
1485	7211
1486	7213
1487	7215
1487	7218
1487	7220
1489	7223
1491	7225
1492	7227
1492	7230
1491	7232
1491	7235
1490	7237
1489	7239
1489	7242
1491	7244
1494	7247
1495	7249
1493	7251
1490	7255
1485	7257
1482	7260
1480	7262
1478	7264
1477	7267
1476	7269
1476	7271
1475	7274
1474	7276
1473	7279
1472	7281
1471	7283
1470	7286
1469	7288
1468	7291
1468	7293
1467	7296
1466	7299
1465	7301
1464	7304
1462	7306
1461	7308
1460	7311
1459	7313
1457	7316
1456	7318
1454	7320
1452	7323
1452	7325
1451	7328
1450	7330
1449	7332
1448	7335
1446	7337
1444	7341
1444	7343
1444	7345
1445	7348
1446	7350
1445	7353
1442	7355
1440	7357
1438	7360
1436	7362
1435	7364
1434	7367
1434	7369
1434	7372
1434	7374
1434	7376
1434	7379
1435	7382
1436	7385
1436	7387
1436	7389
1436	7392
1435	7394
1434	7397
1433	7399
1433	7401
1433	7404
1432	7406
1433	7409
1433	7411
1434	7413
1434	7416
1433	7418
1433	7421
1432	7424
1431	7426
1430	7429
1430	7431
1429	7434
1430	7436
1430	7438
1430	7441
1429	7443
1429	7445
1429	7448
1429	7450
1429	7453
1429	7455
1429	7457
1429	7460
1429	7462
1429	7465
1428	7468
1428	7470
1428	7473
1429	7475
1429	7478
1430	7480
1430	7482
1431	7485
1432	7487
1435	7490
1438	7492
1441	7494
1441	7497
1440	7499
1438	7502
1436	7504
1435	7506
1435	7510
1435	7512
1435	7515
1435	7517
1435	7519
1435	7522
1435	7524
1434	7526
1434	7529
1434	7531
1435	7534
1436	7536
1437	7538
1438	7541
1438	7543
1439	7546
1439	7548
1439	7550
1439	7554
1440	7556
1440	7559
1441	7561
1442	7563
1442	7566
1442	7568
1443	7571
1444	7573
1445	7575
1446	7578
1447	7580
1447	7583
1448	7585
1448	7587
1449	7590
1450	7592
1451	7596
1453	7598
1455	7600
1455	7603
1454	7605
1453	7607
1453	7610
1454	7612
1454	7615
1454	7617
1454	7619
1455	7622
1455	7624
1455	7627
1455	7629
1455	7631
1456	7634
1457	7636
1458	7640
1458	7642
1459	7644
1459	7647
1460	7649
1461	7652
1461	7654
1461	7656
1461	7659
1461	7661
1461	7664
1461	7666
1461	7668
1461	7671
1462	7673
1463	7676
1463	7678
1463	7681
1463	7684
1463	7686
1463	7688
1463	7691
1463	7693
1463	7696
1463	7698
1463	7700
1463	7703
1463	7705
1463	7708
1463	7710
1463	7712
1464	7715
1464	7717
1464	7720
1465	7723
1465	7725
1466	7728
1466	7730
1466	7733
1467	7735
1467	7737
1468	7740
1468	7742
1469	7745
1470	7747
1470	7749
1470	7752
1470	7754
1470	7757
1470	7759
1471	7761
1471	7764
1471	7767
1471	7769
1471	7772
1472	7774
1472	7777
1473	7779
1473	7781
1474	7784
1474	7786
1475	7789
1475	7791
1474	7793
1474	7796
1474	7798
1475	7801
1475	7803
1475	7805
